0.03,0.02,0.03,0.02,0.01,0.00,0.01,0.01,0.00,0.00,0.00,0.00,0.00,0.02,0.03,0.01,0.01,0.02,0.04,0.03,0.02,0.02,0.06,0.04,0.00,0.00,0.01,0.01,0.03,0.04,0.02,0.03,0.03,0.03,0.04,0.06,0.05,0.03,0.02,0.00,0.01,0.00,0.01,0.00,0.06,0.02,0.01,0.02,0.03,0.03,0.02,0.02,0.02,0.00,0.00,0.01,0.02,0.04,0.03,0.03,0.03,0.03,0.02,0.03,0.05,0.03,0.02,0.03,0.05,0.05,0.05,0.05,0.03,0.03,0.05,0.02,0.02,0.02,0.02,0.02,0.02,0.04,0.04,0.05,0.05,0.03,0.00,0.00,0.01,0.03,0.02,0.00,0.01,0.02,0.00,0.00,0.00,0.02,0.00,0.04,0.05,0.04,0.02,0.00,0.03,0.02,0.02,0.00,0.02,0.01,0.03,0.10,0.07,0.04,0.05,0.03,0.00,0.02,0.02,0.03,0.05,0.04,0.03,0.02,0.03,0.05,0.03,0.00,0.02,0.01,0.01,0.01,0.00,0.00,0.00,0.00,0.01,0.01,0.05,0.04,0.04,0.03,0.04,0.06,0.07,0.06,0.04,0.04,0.04,0.03,0.04,0.02,0.02,0.03,0.04,0.01,0.00,0.04,0.06,0.07,0.05,0.02,0.05,0.05,0.03,0.03,0.02,0.02,0.02,0.00,0.01,0.02,0.01,0.02,0.04,0.04,0.05,0.02,0.00,0.00,0.00,0.01,0.03,0.09,0.07,0.05,0.06,0.05,0.08,0.11,0.08,0.04,0.02,0.00,0.01,0.01,0.01,0.02,0.02,0.00,0.08,0.06,0.06,0.04,0.02,0.02,0.02,0.01,0.02,0.01,0.02,0.02,0.00,0.02,0.03,0.03,0.04,0.05,0.06,0.05,0.08,0.07,0.06,0.03,0.03,0.02,0.03,0.03,0.03,0.02,0.02,0.02,0.01,0.02,0.01,0.00,0.00,0.02,0.05,0.04,0.05,0.07,0.04,0.01,0.04,0.03,0.05,0.05,0.01,0.04,0.06,0.05,0.00,0.00,0.02,0.02,0.02,0.01,0.02,0.02,0.00,0.00,0.00,0.01,0.04,0.01,0.03,0.02,0.01,0.02,0.01,0.01,0.00,0.00,0.00,0.01,0.01,0.00,0.01,0.01,0.00,0.01,0.01,0.02,0.03,0.04,0.03,0.05,0.08,0.06,0.05,0.05,0.06,0.05,0.05,0.05,0.06,0.06,0.06,0.05,0.05,0.04,0.03,0.05,0.05,0.03,0.00,0.00,0.00,0.00,0.00,0.01,0.02,0.00,0.01,0.04,0.08,0.06,0.05,0.04,0.05,0.07,0.08,0.06,0.05,0.04,0.02,0.02,0.03,0.04,0.05,0.04,0.03,0.07,0.03,0.02,0.02,0.04,0.03,0.04,0.03,0.01,0.00,0.01,0.00,0.01,0.02,0.01,0.01,0.00,0.02,0.01,0.02,0.02,0.00,0.12,0.11,0.05,0.00,0.00,0.00,0.01,0.01,0.00,0.01,0.02,0.02,0.02,0.03,0.02,0.00,0.00,0.00,0.01,0.02,0.01,0.03,0.07,0.04,0.01,0.00,0.03,0.05,0.05,0.05,0.03,0.03,0.04,0.03,0.05,0.03,0.06,0.03,0.03,0.03,0.03,0.04,0.03,0.02,0.03,0.03,0.05,0.07,0.06,0.06,0.06,0.08,0.07,0.07,0.06,0.06,0.08,0.09,0.06,0.02,0.02,0.01,0.00,0.02,0.04,0.06,0.06,0.05,0.03,0.02,0.02,0.01,0.02,0.01,0.03,0.01,0.03,0.03,0.02,0.01,0.03,0.03,0.02,0.02,0.04,0.06,0.05,0.05,0.10,0.06,0.04,0.05,0.05,0.04,0.03,0.04,0.04,0.02,0.02,0.02,0.01,0.02,0.02,0.02,0.02,0.02,0.01,0.01,0.02,0.03,0.03,0.01,0.04,0.03,0.03,0.03,0.05,0.06,0.04,0.03,0.02,0.04,0.07,0.08,0.08,0.07,0.03,0.05,0.06,0.05,0.03,0.06,0.08,0.02,0.03,0.02,0.02,0.03,0.06,0.05,0.03,0.02,0.00,0.02,0.03,0.03,0.03,0.02,0.01,0.02,0.00,0.01,0.03,0.02,0.01,0.01,0.02,0.02,0.02,0.02,0.02,0.02,0.00,0.00,0.00,0.00,0.03,0.02,0.02,0.04,0.01,0.10,0.16,0.08,0.01,0.05,0.03,0.04,0.05,0.03,0.06,0.09,0.11,0.06,0.07,0.07,0.00,0.03,0.03,0.21,0.25,0.09,0.00,0.02,0.01,0.00,0.05,0.07,0.03,0.07,0.01,0.27,0.41,0.42,0.44,0.05,0.20,0.22,0.11,0.02,0.03,0.03,0.04,0.04,0.05,0.07,0.06,0.05,0.04,0.03,0.04,0.02,0.03,0.01,0.05,0.00,0.07,0.06,0.01,0.14,0.22,0.16,0.31,0.66,0.51,0.21,0.14,0.14,0.13,0.22,1.12,1.45,0.72,0.37,0.74,0.62,0.29,0.10,0.39,0.24,1.35,3.17,3.01,1.48,0.98,2.45,1.84,2.02,1.83,2.79,3.15,2.91,2.91,2.26,2.85,2.42,0.09,1.78,2.89,3.17,3.17,3.17,3.17,1.41,1.92,1.54,1.68,1.75,2.41,2.54,2.72,3.16,3.16,1.12,3.17,3.17,3.17,1.90,3.16,3.16,3.16,0.13,3.17,3.17,1.17,2.15,3.16,3.16,0.91,0.18,1.10,2.26,3.17,3.17,3.17,0.91,3.16,3.16,1.43,1.09,0.18,0.11,0.32,0.05,0.88,3.17,3.17,3.17,3.17,3.17,1.38,2.30,3.16,3.16,2.84,0.86,0.15,1.25,1.10,0.46,1.13,0.61,0.72,0.21,2.06,1.89,0.71,0.20,0.50,0.21,0.58,0.99,0.41,0.48,1.27,3.16,2.07,0.41,2.38,1.24,0.41,1.01,0.26,0.04,0.25,1.21,1.23,0.95,0.02,0.20,0.46,0.93,1.24,0.68,0.42,0.22,0.14,0.48,0.63,1.42,2.62,3.17,1.74,1.91,2.88,3.03,3.16,2.95,2.28,1.69,0.18,0.48,0.44,1.95,0.85,1.29,3.16,3.16,2.31,1.93,1.73,1.24,1.50,3.02,1.41,0.97,2.32,0.15,2.05,2.98,3.16,2.59,0.86,0.86,0.60,0.84,1.51,0.57,1.34,1.71,0.23,0.69,0.85,0.28,0.63,1.16,1.08,0.90,0.92,1.41,1.57,1.66,1.26,1.25,1.26,1.95,2.05,1.00,0.14,0.25,0.37,3.17,3.17,3.17,3.17,1.72,0.90,2.73,1.97,0.96,1.45,2.47,1.45,0.82,2.80,2.59,0.11,3.04,3.16,3.16,2.57,2.92,1.79,0.53,2.33,0.95,0.33,0.26,0.74,1.20,0.13,1.90,2.17,1.37,0.56,1.08,0.25,1.87,3.10,2.08,0.31,1.01,0.86,0.00,1.90,2.14,0.22,1.15,0.91,0.77,0.46,0.11,0.85,0.13,0.45,1.03,1.63,0.83,0.22,0.78,1.65,2.37,2.08,1.39,0.45,1.79,3.16,3.16,1.48,0.78,2.28,3.17,2.33,3.17,3.17,1.21,0.21,1.77,1.76,1.73,1.23,0.66,1.44,1.03,0.45,0.64,3.16,2.81,0.05,3.17,3.17,2.52,1.33,0.53,0.12,0.75,1.35,0.48,1.80,1.33,0.17,0.29,0.20,0.03,0.98,0.89,0.20,0.28,0.85,1.77,2.24,1.12,0.26,0.58,2.11,1.01,0.29,2.01,1.56,1.08,0.82,0.86,1.58,1.54,0.61,1.08,2.03,1.43,1.15,1.42,1.77,1.27,0.66,0.39,0.31,0.64,0.27,0.36,0.65,0.13,1.63,1.98,0.06,2.06,1.54,0.82,0.00,0.74,0.73,0.46,0.14,0.70,0.16,1.04,2.11,0.08,1.92,3.16,3.16,3.00,2.54,2.41,1.69,0.99,0.10,0.00,0.51,1.67,2.94,3.17,3.17,3.17,3.17,3.17,0.14,3.16,1.82,1.30,1.93,0.55,0.37,0.84,0.17,0.96,2.72,2.32,3.10,2.78,2.06,1.43,0.33,0.61,1.68,2.27,0.79,1.57,0.94,1.63,0.74,1.91,3.10,1.49,0.12,1.23,0.93,0.10,0.28,0.61,0.72,0.09,1.12,1.78,1.12,0.29,0.08,0.74,0.51,0.73,2.40,1.26,0.56,2.94,3.16,1.63,0.90,1.73,1.04,0.48,0.90,0.11,1.85,2.44,1.22,0.80,0.08,1.39,2.73,2.58,1.07,0.96,2.54,1.90,0.48,0.66,1.09,2.61,2.96,1.63,0.58,2.49,2.58,1.74,1.37,1.66,1.16,0.69,1.31,1.76,0.61,1.44,3.09,2.63,2.13,1.18,0.24,0.23,0.21,0.51,0.21,0.27,0.25,0.20,1.02,1.79,1.52,0.20,0.50,0.24,0.09,1.28,1.20,0.36,0.52,1.81,2.72,2.27,2.07,1.57,0.42,2.70,1.93,0.96,3.17,3.07,1.63,1.04,3.16,3.16,3.16,3.16,2.23,1.05,0.21,0.48,1.18,0.89,0.51,0.21,0.89,0.97,0.39,0.02,0.38,0.42,0.89,0.36,1.05,0.40,0.25,0.49,1.26,0.64,3.17,2.59,0.38,0.40,1.66,1.01,2.20,2.75,1.02,2.00,3.14,3.10,2.45,2.83,3.10,3.17,2.17,0.75,3.16,3.16,3.16,2.56,2.36,1.81,2.21,0.46,0.81,2.08,2.41,2.66,2.70,1.39,2.76,2.88,0.97,3.16,3.16,3.16,1.23,0.02,0.59,0.77,0.26,1.98,2.16,0.27,0.02,0.15,0.06,0.25,0.47,0.18,0.36,0.68,1.02,1.22,2.19,2.86,1.59,1.17,2.18,0.07,0.19,0.19,0.47,0.13,0.91,1.80,1.16,0.31,0.73,0.82,0.48,0.43,0.80,1.25,0.73,0.51,0.61,0.01,1.11,1.37,0.33,0.79,0.34,0.16,0.35,1.51,2.05,1.01,1.53,2.90,2.65,1.87,1.18,0.24,2.43,3.17,3.17,3.17,2.24,1.37,2.33,3.15,1.53,0.32,2.41,3.17,2.69,0.87,3.16,3.16,3.16,2.59,2.19,1.70,1.13,1.75,1.17,0.27,1.11,1.67,0.95,0.58,0.43,0.33,0.28,0.33,0.16,0.56,1.02,0.47,0.42,0.61,0.60,0.30,0.11,0.01,0.08,0.21,0.22,0.11,0.18,0.13,0.11,0.14,0.03,0.03,0.10,0.20,0.15,0.12,0.33,0.43,0.44,0.34,0.38,0.40,0.41,0.42,0.44,0.45,0.43,0.44,0.41,0.45,0.44,0.48,0.55,0.49,0.47,0.48,0.44,0.38,0.31,0.29,0.03,0.52,0.00,1.10,1.18,0.24,0.00,0.50,0.53,0.06,0.56,0.86,0.02,0.67,0.36,0.09,0.10,0.02,0.01,0.01,0.33,0.43,0.04,0.34,0.16,0.21,0.29,0.29,0.28,0.14,0.07,0.11,0.16,0.14,0.20,0.11,0.02,0.03,0.08,0.05,0.03,0.07,0.08,0.07,0.00,0.07,0.01,0.06,0.10,0.14,0.16,0.19,0.19,0.21,0.21,0.17,0.16,0.13,0.06,0.07,0.09,0.16,0.33,0.27,0.14,0.08,0.05,0.00,0.03,0.18,0.10,0.06,0.06,0.02,0.00,0.02,0.03,0.03,0.01,0.02,0.02,0.10,0.22,0.13,0.00,0.13,0.17,0.14,0.08,0.08,0.08,0.11,0.10,0.10,0.11,0.09,0.04,0.03,0.00,0.14,0.36,0.30,0.04,0.29,0.55,0.51,0.34,0.15,0.25,0.40,0.29,0.17,0.56,0.38,0.08,0.02,0.00,0.03,0.09,0.10,0.11,0.18,0.26,0.15,0.08,0.15,0.11,0.06,0.05,0.14,0.18,0.19,0.23,0.35,0.60,0.77,0.65,0.56,0.56,0.50,0.49,0.37,0.54,0.77,0.69,0.58,0.55,0.54,0.52,0.48,0.48,0.44,0.38,0.35,0.29,0.21,0.14,0.06,0.01,0.08,0.16,0.25,0.28,0.29,0.33,0.38,0.42,0.46,0.50,0.55,0.54,0.54,0.58,0.56,0.56,0.50,0.57,0.52,0.50,0.55,0.48,0.46,0.47,0.48,0.47,0.41,0.41,0.42,0.39,0.36,0.35,0.37,0.36,0.37,0.38,0.37,0.35,0.33,0.33,0.33,0.32,0.28,0.27,0.22,0.17,0.15,0.15,0.15,0.11,0.10,0.12,0.08,0.11,0.14,0.06,0.01,0.08,0.13,0.11,0.12,0.13,0.18,0.18,0.21,0.23,0.25,0.27,0.26,0.24,0.22,0.25,0.26,0.28,0.28,0.26,0.26,0.24,0.24,0.21,0.22,0.24,0.18,0.19,0.18,0.13,0.12,0.01,0.08,0.14,0.08,0.07,0.06,0.01,0.01,0.00,0.02,0.01,0.03,0.06,0.10,0.14,0.18,0.25,0.37,0.38,0.40,0.46,0.62,0.67,0.51,0.44,0.48,0.44,0.38,0.37,0.39,0.36,0.34,0.37,0.38,0.40,0.43,0.40,0.35,0.33,0.31,0.31,0.31,0.31,0.28,0.29,0.29,0.32,0.32,0.32,0.33,0.34,0.35,0.41,0.38,0.37,0.36,0.37,0.35,0.33,0.32,0.32,0.31,0.30,0.29,0.30,0.31,0.25,0.26,0.25,0.24,0.25,0.24,0.23,0.28,0.29,0.30,0.27,0.21,0.17,0.19,0.24,0.21,0.19,0.20,0.20,0.22,0.22,0.21,0.19,0.19,0.21,0.21,0.20,0.18,0.21,0.26,0.36,0.27,0.27,0.21,0.13,0.18,0.14,0.11,0.06,0.04,0.03,0.04,0.13,0.12,0.08,0.04,0.00,0.13,0.13,0.12,0.04,0.05,0.02,0.05,0.10,0.11,0.09,0.10,0.08,0.06,0.04,0.02,0.03,0.12,0.13,0.12,0.11,0.09,0.06,0.04,0.01,0.02,0.02,0.08,0.11,0.10,0.08,0.05,0.05,0.02,0.08,0.11,0.07,0.04,0.03,0.02,0.01,0.02,0.03,0.01,0.02,0.10,0.06,0.07,0.09,0.12,0.10,0.06,0.08,0.11,0.14,0.13,0.15,0.16,0.15,0.22,0.24,0.24,0.19,0.13,0.20,0.30,0.32,0.27,0.22,0.14,0.17,0.24,0.29,0.29,0.28,0.22,0.22,0.27,0.29,0.29,0.27,0.24,0.24,0.24,0.21,0.22,0.21,0.19,0.21,0.20,0.19,0.21,0.20,0.21,0.19,0.18,0.18,0.17,0.11,0.11,0.17,0.16,0.15,0.12,0.06,0.08,0.10,0.06,0.05,0.00,0.02,0.05,0.05,0.05,0.06,0.05,0.03,0.03,0.01,0.00,0.01,0.00,0.00,0.03,0.03,0.00,0.02,0.05,0.10,0.06,0.03,0.02,0.05,0.10,0.06,0.03,0.10,0.09,0.13,0.13,0.11,0.11,0.08,0.04,0.02,0.00,0.00,0.04,0.08,0.08,0.00,0.09,0.10,0.13,0.18,0.14,0.09,0.17,0.11,0.03,0.01,0.06,0.08,0.05,0.06,0.10,0.03,0.00,0.01,0.04,0.11,0.12,0.11,0.12,0.14,0.16,0.15,0.13,0.13,0.13,0.13,0.11,0.12,0.07,0.07,0.07,0.07,0.08,0.06,0.05,0.05,0.05,0.05,0.06,0.05,0.02,0.02,0.02,0.03,0.04,0.05,0.05,0.06,0.07,0.08,0.10,0.12,0.14,0.14,0.13,0.16,0.14,0.12,0.14,0.13,0.11,0.11,0.11,0.14,0.16,0.19,0.21,0.19,0.15,0.12,0.06,0.16,0.17,0.12,0.09,0.16,0.13,0.10,0.08,0.03,0.05,0.11,0.12,0.06,0.03,0.11,0.09,0.06,0.01,0.01,0.03,0.03,0.02,0.00,0.01,0.00,0.00,0.00,0.00,0.02,0.05,0.04,0.00,0.02,0.02,0.03,0.00,0.06,0.02,0.00,0.01,0.00,0.00,0.01,0.02,0.02,0.02,0.02,0.03,0.02,0.02,0.02,0.02,0.04,0.06,0.04,0.04,0.04,0.05,0.03,0.04,0.07,0.04,0.06,0.06,0.08,0.07,0.06,0.10,0.10,0.08,0.09,0.12,0.11,0.11,0.10,0.10,0.11,0.10,0.09,0.08,0.08,0.09,0.08,0.10,0.11,0.09,0.06,0.11,0.10,0.08,0.09,0.10,0.05,0.03,0.03,0.07,0.07,0.12,0.14,0.13,0.08,0.06,0.09,0.07,0.02,0.00,0.08,0.11,0.13,0.12,0.10,0.08,0.13,0.15,0.10,0.12,0.13,0.10,0.09,0.11,0.12,0.10,0.09,0.09,0.07,0.07,0.07,0.07,0.07,0.08,0.08,0.07,0.07,0.06,0.07,0.07,0.07,0.07,0.07,0.08,0.11,0.11,0.09,0.08,0.09,0.12,0.11,0.10,0.10,0.10,0.08,0.09,0.08,0.09,0.11,0.11,0.10,0.09,0.07,0.07,0.05,0.05,0.04,0.03,0.00,0.01,0.00,0.02,0.04,0.04,0.02,0.03,0.05,0.05,0.02,0.02,0.00,0.03,0.04,0.00,0.01,0.00,0.04,0.03,0.02,0.03,0.00,0.03,0.03,0.02,0.01,0.00,0.00,0.00,0.01,0.03,0.03,0.05,0.04,0.02,0.03,0.15,0.22,0.05,0.02,0.00,0.01,0.00,0.01,0.01,0.01,0.01,0.00,0.00,0.01,0.00,0.01,0.01,0.00,0.02,0.01,0.01,0.00,0.02,0.03,0.13,0.10,0.09,0.08,0.05,0.05,0.05,0.04,0.05,0.06,0.06,0.05,0.03,0.04,0.04,0.03,0.03,0.03,0.01,0.01,0.01,0.03,0.06,0.06,0.04,0.03,0.03,0.06,0.04,0.05,0.09,0.10,0.11,0.08,0.08,0.10,0.13,0.10,0.10,0.14,0.19,0.15,0.08,0.05,0.07,0.06,0.05,0.10,0.10,0.06,0.04,0.02,0.04,0.05,0.05,0.03,0.02,0.01,0.01,0.01,0.01,0.02,0.01,0.01,0.00,0.02,0.02,0.13,0.06,0.04,0.03,0.00,0.00,0.01,0.02,0.00,0.03,0.05,0.03,0.03,0.01,0.01,0.01,0.02,0.01,0.00,0.01,0.01,0.01,0.02,0.02,0.00,0.01,0.00,0.02,0.04,0.03,0.01,0.01,0.00,0.00,0.01,0.02,0.00,0.01,0.00,0.01,0.03,0.00,0.00,0.02,0.04,0.04,0.03,0.03,0.03,0.05,0.05,0.01,0.00,0.00,0.03,0.04,0.05,0.02,0.03,0.04,0.05,0.01,0.03,0.06,0.06,0.05,0.03,0.02,0.01,0.05,0.03,0.02,0.02,0.03,0.03,0.00,0.04,0.03,0.00,0.02,0.01,0.00,0.01,0.00,0.02,0.02,0.00,0.02,0.02,0.01,0.00,0.00,0.00,0.02,0.02,0.01,0.00,0.02,0.03,0.05,0.01,0.00,0.01,0.00,0.05,0.01,0.03,0.01,0.00,0.02,0.06,0.00,0.06,0.04,0.03,0.01,0.02,0.02,0.03,0.05,0.03,0.00,0.00,0.05,0.05,0.05,0.03,0.05,0.05,0.03,0.02,0.01,0.04,0.05,0.06,0.07,0.05,0.05,0.03,0.05,0.03,0.01,0.00,0.03,0.03,0.02,0.07,0.07,0.05,0.05,0.02,0.02,0.02,0.03,0.04,0.01,0.02,0.01,0.01,0.01,0.01,0.00,0.00,0.00,0.00,0.00,0.01,0.00,0.02,0.06,0.04,0.00,0.01,0.00,0.01,0.00,0.00,0.00,0.00,0.01,0.01,0.01,0.00,0.04,0.00,0.00,0.05,0.02,0.00,0.05,0.08,0.04,0.01,0.03,0.02,0.00,0.03,0.06,0.08,0.08,0.07,0.10,0.09,0.07,0.07,0.06,0.05,0.05,0.04,0.06,0.06,0.04,0.05,0.01,0.02,0.02,0.02,0.00,0.02,0.02,0.01,0.05,0.05,0.05,0.05,0.04,0.06,0.06,0.04,0.04,0.05,0.04,0.02,0.01,0.00,0.01,0.03,0.02,0.02,0.04,0.03,0.01,0.04,0.02,0.04,0.06,0.05,0.02,0.03,0.05,0.03,0.05,0.08,0.06,0.08,0.08,0.10,0.09,0.09,0.11,0.08,0.07,0.07,0.07,0.05,0.05,0.07,0.06,0.06,0.08,0.10,0.08,0.07,0.11,0.11,0.08,0.08,0.07,0.06,0.08,0.09,0.08,0.09,0.12,0.07,0.08,0.11,0.08,0.06,0.05,0.03,0.04,0.06,0.08,0.10,0.10,0.08,0.07,0.06,0.08,0.05,0.01,0.03,0.06,0.07,0.06,0.06,0.13,0.13,0.13,0.13,0.13,0.15,0.11,0.10,0.08,0.11,0.11,0.10,0.08,0.06,0.06,0.07,0.06,0.05,0.05,0.02,0.03,0.04,0.02,0.01,0.00,0.02,0.03,0.00,0.02,0.02,0.02,0.03,0.01,0.01,0.01,0.02,0.01,0.03,0.02,0.01,0.02,0.00,0.00,0.02,0.03,0.01,0.00,0.01,0.01,0.04,0.01,0.00,0.00,0.01,0.02,0.03,0.02,0.01,0.03,0.01,0.00,0.00,0.00,0.00,0.00,0.01,0.00,0.00,0.05,0.05,0.01,0.01,0.00,0.00,0.01,0.01,0.00,0.00,0.00,0.02,0.00,0.09,0.07,0.00,0.03,0.00,0.01,0.01,0.03,0.01,0.01,0.02,0.04,0.03,0.01,0.03,0.01,0.00,0.00,0.02,0.02,0.01,0.00,0.01,0.03,0.04,0.02,0.01,0.01,0.02,0.03,0.02,0.06,0.04,0.01,0.03,0.08,0.07,0.08,0.08,0.04,0.05,0.05,0.03,0.02,0.02,0.01,0.00,0.00,0.00,0.00,0.01,0.01,0.02,0.02,0.03,0.03,0.02,0.03,0.02,0.02,0.01,0.02,0.01,0.02,0.02,0.02,0.01,0.01,0.02,0.02,0.00,0.01,0.00,0.04,0.02,0.01,0.03,0.01,0.00,0.00,0.03,0.03,0.01,0.00,0.00,0.03,0.06,0.05,0.07,0.05,0.03,0.02,0.00,0.01,0.01,0.00,0.01,0.00,0.00,0.03,0.03,0.05,0.06,0.02,0.03,0.04,0.06,0.04,0.01,0.01,0.01,0.00,0.03,0.03,0.01,0.02,0.01,0.00,0.00,0.00,0.00,0.00,0.02,0.03,0.00,0.00,0.05,0.04,0.02,0.01,0.02,0.00,0.00,0.00,0.02,0.02,0.03,0.03,0.02,0.02,0.02,0.05,0.04,0.04,0.04,0.02,0.02,0.02,0.02,0.01,0.01,0.01,0.01,0.01,0.01,0.01,0.01,0.02,0.02,0.03,0.06,0.05,0.05,0.06,0.04,0.05,0.07,0.05,0.03,0.03,0.02,0.01,0.02,0.00,0.02,0.03,0.00,0.03,0.04,0.04,0.03,0.01,0.01,0.00,0.00,0.01,0.01,0.02,0.02,0.02,0.02,0.02,0.00,0.03,0.05,0.05,0.01,0.01,0.01,0.01,0.02,0.00,0.01,0.00,0.07,0.02,0.03,0.04,0.05,0.02,0.10,0.08,0.08,0.11,0.13,0.10,0.06,0.05,0.03,0.03,0.03,0.03,0.00,0.02,0.01,0.01,0.00,0.03,0.06,0.06,0.05,0.04,0.02,0.01,0.01,0.02,0.04,0.03,0.02,0.01,0.00,0.01,0.01,0.02,0.00,0.01,0.02,0.03,0.04,0.03,0.03,0.03,0.04,0.04,0.02,0.03,0.02,0.01,0.01,0.02,0.02,0.01,0.00,0.00,0.02,0.03,0.02,0.04,0.07,0.05,0.05,0.09,0.08,0.07,0.05,0.05,0.02,0.03,0.04,0.05,0.05,0.05,0.07,0.05,0.04,0.06,0.07,0.04,0.03,0.02,0.02,0.06,0.09,0.07,0.08,0.12,0.08,0.07,0.09,0.07,0.03,0.01,0.01,0.01,0.00,0.03,0.05,0.04,0.07,0.10,0.08,0.08,0.05,0.08,0.09,0.06,0.06,0.06,0.05,0.05,0.03,0.02,0.03,0.05,0.06,0.05,0.05,0.04,0.04,0.04,0.04,0.07,0.10,0.07,0.03,0.02,0.01,0.00,0.00,0.00,0.03,0.07,0.04,0.05,0.03,0.00,0.01,0.02,0.00,0.05,0.05,0.00,0.00,0.00,0.03,0.00,0.03,0.05,0.08,0.06,0.05,0.05,0.03,0.04,0.03,0.00,0.02,0.00,0.00,0.01,0.00,0.02,0.04,0.03,0.04,0.03,0.00,0.01,0.03,0.03,0.02,0.02,0.01,0.00,0.02,0.06,0.05,0.02,0.02,0.05,0.06,0.02,0.02,0.05,0.03,0.02,0.05,0.05,0.03,0.01,0.01,0.02,0.03,0.00,0.00,0.00,0.00,0.00,0.02,0.03,0.05,0.05,0.07,0.07,0.07,0.04,0.01,0.02,0.05,0.02,0.10,0.10,0.03,0.00,0.00,0.01,0.00,0.02,0.02,0.02,0.00,0.00,0.00,0.01,0.00,0.02,0.02,0.00,0.00,0.00,0.02,0.00,0.00,0.00,0.01,0.00,0.06,0.07,0.03,0.00,0.00,0.01,0.02
0.02,0.02,0.01,0.01,0.01,0.02,0.02,0.04,0.01,0.01,0.02,0.02,0.02,0.02,0.02,0.02,0.02,0.02,0.01,0.02,0.02,0.02,0.03,0.03,0.03,0.02,0.03,0.02,0.02,0.01,0.01,0.01,0.02,0.02,0.03,0.04,0.04,0.02,0.02,0.06,0.08,0.07,0.06,0.08,0.07,0.04,0.04,0.03,0.02,0.01,0.03,0.02,0.08,0.13,0.13,0.08,0.03,0.02,0.02,0.02,0.01,0.04,0.03,0.05,0.04,0.03,0.02,0.02,0.02,0.02,0.00,0.03,0.00,0.02,0.00,0.03,0.01,0.00,0.05,0.07,0.03,0.02,0.02,0.03,0.00,0.00,0.03,0.01,0.00,0.00,0.00,0.00,0.00,0.00,0.00,0.00,0.00,0.01,0.00,0.01,0.01,0.01,0.01,0.01,0.00,0.00,0.00,0.01,0.02,0.01,0.03,0.07,0.07,0.05,0.04,0.03,0.03,0.05,0.03,0.03,0.03,0.07,0.07,0.05,0.03,0.02,0.04,0.06,0.05,0.03,0.01,0.01,0.01,0.01,0.00,0.01,0.05,0.04,0.04,0.02,0.02,0.06,0.05,0.04,0.02,0.02,0.01,0.00,0.02,0.01,0.01,0.01,0.02,0.04,0.02,0.00,0.00,0.03,0.02,0.02,0.00,0.00,0.01,0.04,0.03,0.03,0.03,0.00,0.00,0.07,0.03,0.00,0.00,0.02,0.02,0.01,0.00,0.00,0.01,0.01,0.01,0.00,0.00,0.00,0.00,0.00,0.01,0.02,0.01,0.03,0.02,0.02,0.01,0.02,0.01,0.02,0.03,0.02,0.02,0.01,0.01,0.02,0.00,0.02,0.03,0.03,0.02,0.01,0.02,0.01,0.01,0.02,0.02,0.00,0.00,0.00,0.00,0.01,0.03,0.00,0.00,0.03,0.03,0.02,0.06,0.08,0.04,0.04,0.03,0.05,0.06,0.02,0.00,0.02,0.06,0.05,0.04,0.03,0.01,0.03,0.03,0.00,0.02,0.00,0.00,0.01,0.02,0.02,0.01,0.04,0.01,0.02,0.02,0.01,0.01,0.02,0.02,0.02,0.01,0.01,0.01,0.02,0.03,0.02,0.02,0.00,0.00,0.00,0.02,0.04,0.04,0.03,0.06,0.08,0.08,0.03,0.01,0.02,0.03,0.01,0.01,0.00,0.00,0.01,0.00,0.02,0.03,0.02,0.02,0.00,0.00,0.00,0.01,0.02,0.01,0.02,0.02,0.01,0.01,0.03,0.02,0.01,0.02,0.02,0.01,0.01,0.01,0.07,0.03,0.02,0.02,0.00,0.00,0.00,0.00,0.00,0.00,0.03,0.01,0.02,0.01,0.02,0.02,0.03,0.05,0.03,0.02,0.04,0.03,0.04,0.04,0.03,0.03,0.03,0.04,0.05,0.03,0.04,0.04,0.03,0.04,0.05,0.06,0.07,0.09,0.06,0.03,0.03,0.03,0.06,0.08,0.08,0.03,0.02,0.01,0.02,0.02,0.01,0.00,0.03,0.03,0.03,0.03,0.01,0.00,0.00,0.00,0.01,0.00,0.00,0.00,0.02,0.03,0.03,0.05,0.06,0.06,0.06,0.06,0.07,0.05,0.03,0.03,0.01,0.03,0.04,0.00,0.02,0.06,0.07,0.05,0.03,0.03,0.03,0.03,0.06,0.04,0.01,0.02,0.00,0.02,0.04,0.03,0.03,0.02,0.01,0.01,0.00,0.00,0.00,0.00,0.02,0.02,0.01,0.00,0.00,0.01,0.01,0.00,0.00,0.03,0.06,0.01,0.01,0.05,0.06,0.07,0.08,0.02,0.01,0.00,0.03,0.05,0.04,0.02,0.02,0.04,0.03,0.01,0.04,0.05,0.02,0.00,0.00,0.00,0.00,0.03,0.01,0.06,0.12,0.11,0.06,0.08,0.06,0.03,0.01,0.00,0.00,0.02,0.01,0.03,0.04,0.02,0.01,0.02,0.00,0.02,0.02,0.00,0.00,0.01,0.04,0.05,0.02,0.04,0.06,0.07,0.08,0.08,0.03,0.03,0.04,0.03,0.02,0.02,0.02,0.02,0.02,0.01,0.02,0.02,0.01,0.01,0.02,0.01,0.01,0.02,0.01,0.00,0.03,0.03,0.03,0.02,0.00,0.01,0.01,0.02,0.04,0.03,0.03,0.06,0.05,0.04,0.05,0.06,0.08,0.08,0.09,0.08,0.07,0.07,0.06,0.06,0.06,0.05,0.07,0.08,0.10,0.08,0.05,0.03,0.03,0.02,0.02,0.01,0.05,0.03,0.00,0.02,0.03,0.01,0.00,0.04,0.00,0.02,0.02,0.01,0.00,0.02,0.01,0.00,0.00,0.01,0.00,0.00,0.01,0.01,0.00,0.02,0.02,0.03,0.02,0.00,0.01,0.01,0.01,0.00,0.01,0.01,0.00,0.00,0.01,0.01,0.00,0.03,0.04,0.02,0.02,0.00,0.01,0.01,0.02,0.00,0.00,0.00,0.00,0.00,0.01,0.02,0.02,0.04,0.06,0.04,0.03,0.03,0.05,0.05,0.02,0.01,0.00,0.01,0.02,0.03,0.02,0.02,0.07,0.07,0.06,0.07,0.07,0.03,0.00,0.01,0.03,0.03,0.02,0.03,0.06,0.07,0.07,0.07,0.04,0.04,0.05,0.01,0.00,0.00,0.00,0.00,0.02,0.02,0.02,0.02,0.03,0.05,0.07,0.06,0.05,0.03,0.03,0.03,0.02,0.00,0.02,0.00,0.02,0.00,0.04,0.00,0.00,0.01,0.01,0.00,0.01,0.04,0.00,0.02,0.02,0.01,0.00,0.00,0.00,0.00,0.04,0.07,0.07,0.07,0.05,0.03,0.02,0.02,0.02,0.03,0.03,0.03,0.10,0.13,0.07,0.05,0.06,0.06,0.06,0.04,0.04,0.04,0.04,0.01,0.01,0.01,0.02,0.02,0.05,0.09,0.06,0.05,0.07,0.06,0.03,0.00,0.01,0.04,0.04,0.04,0.04,0.05,0.03,0.07,0.03,0.02,0.00,0.01,0.00,0.03,0.04,0.02,0.00,0.05,0.02,0.03,0.03,0.05,0.03,0.02,0.01,0.02,0.02,0.03,0.03,0.03,0.02,0.02,0.02,0.02,0.02,0.00,0.02,0.04,0.01,0.03,0.04,0.05,0.06,0.04,0.04,0.04,0.05,0.05,0.05,0.08,0.10,0.04,0.02,0.09,0.11,0.42,0.73,0.66,0.54,0.45,0.35,0.70,1.10,1.23,1.07,0.81,0.42,0.98,1.85,2.01,0.73,0.01,0.91,1.15,0.29,0.54,0.83,1.59,2.19,1.70,1.02,0.03,0.61,1.68,1.10,0.03,0.20,0.86,0.40,0.35,1.01,2.26,1.60,0.72,2.64,1.58,1.39,1.47,1.29,2.87,3.16,3.16,1.70,0.17,0.03,0.37,0.28,0.78,1.50,0.83,2.13,1.12,0.79,0.59,1.09,1.57,2.18,2.78,3.17,3.17,2.11,0.04,1.06,1.29,3.16,3.16,2.18,1.87,1.71,2.61,2.26,1.26,2.33,3.17,3.17,3.17,2.28,2.58,0.77,0.21,0.77,1.72,3.16,3.16,3.16,3.16,3.16,3.16,3.16,3.16,3.16,3.16,2.99,1.06,0.74,2.07,2.75,1.97,1.26,0.11,0.40,0.54,0.94,1.94,3.16,3.16,3.16,3.16,3.16,2.56,1.44,0.80,0.10,0.41,0.51,0.77,1.98,2.43,1.95,1.40,1.21,1.22,2.23,2.62,1.82,0.13,1.34,1.29,0.14,1.17,0.58,0.86,1.79,1.15,0.22,1.79,3.03,2.97,3.17,3.17,3.17,3.17,3.17,3.17,3.17,2.20,1.48,0.59,0.20,0.44,0.52,0.61,2.19,2.47,1.34,0.21,0.84,0.00,2.33,3.16,3.16,3.16,3.16,3.16,1.91,1.06,0.41,0.22,0.42,1.28,1.35,0.31,1.54,2.16,1.05,1.04,1.65,1.40,0.73,1.81,0.20,2.25,3.17,2.80,0.98,0.58,2.20,1.52,0.96,1.41,1.66,1.08,0.38,0.11,0.70,1.45,3.17,3.17,2.56,1.92,1.52,1.55,1.38,0.60,1.48,2.44,3.16,3.16,2.13,1.51,0.41,0.11,0.62,0.69,0.97,2.01,1.52,1.11,0.88,0.27,3.07,3.17,3.17,3.17,2.44,2.22,2.96,3.16,2.45,1.26,1.02,0.38,0.37,1.00,1.32,0.90,1.84,3.16,2.84,0.56,2.45,3.17,2.18,1.33,0.22,0.86,0.13,1.18,2.03,2.06,2.06,1.58,0.07,0.27,1.71,2.54,2.84,2.27,1.38,1.78,2.01,2.42,1.98,0.15,2.99,3.16,3.16,2.96,2.14,1.46,0.89,0.66,1.03,1.02,0.96,0.76,0.67,1.67,2.13,2.13,3.17,3.17,1.54,0.83,1.89,1.30,1.36,0.67,0.60,0.86,0.82,0.53,0.01,0.45,0.52,0.36,1.04,1.65,2.01,1.47,1.49,1.46,1.14,0.89,1.79,3.17,2.98,0.36,3.05,3.07,2.00,1.06,0.07,1.00,1.02,0.88,0.95,0.61,0.34,0.68,0.83,0.64,1.68,2.73,3.12,2.39,1.61,0.92,0.29,0.76,0.83,0.93,0.28,0.15,0.58,1.16,1.34,1.70,2.11,2.05,1.22,1.03,3.16,3.16,3.16,2.92,3.16,3.16,1.22,1.37,1.09,0.30,1.16,2.45,2.88,0.56,3.16,3.16,3.16,0.24,1.70,1.85,0.93,0.34,0.43,0.83,0.12,0.85,0.47,0.52,1.71,2.91,2.28,1.64,1.08,0.58,0.80,0.97,1.14,0.83,0.85,0.77,0.80,1.47,2.69,3.05,1.41,1.86,3.16,3.16,2.38,1.41,1.02,1.33,0.44,0.90,1.77,1.50,0.63,3.11,3.17,2.56,1.63,3.16,1.75,0.16,1.69,0.51,2.76,3.17,1.34,0.06,0.68,0.27,2.16,3.16,2.80,0.61,0.51,3.16,3.16,1.82,1.31,0.89,0.39,1.45,2.73,1.84,2.04,1.78,0.16,2.16,1.20,0.06,0.13,0.70,0.12,1.62,1.76,0.85,0.85,0.36,2.87,3.17,3.17,1.23,0.48,0.47,0.48,0.43,0.25,0.53,0.62,1.07,1.38,2.31,3.16,2.39,1.36,1.34,3.17,3.17,3.17,1.38,2.96,3.16,3.16,0.86,0.04,0.35,0.27,0.19,1.36,0.14,1.19,1.29,0.73,0.08,1.66,2.59,3.17,3.01,0.29,2.85,3.16,3.16,2.43,0.78,0.63,0.40,0.91,2.15,1.41,0.01,0.90,1.02,0.32,1.05,0.55,1.98,2.19,0.98,0.52,0.99,1.20,1.14,1.10,1.31,1.30,1.24,0.58,0.01,1.17,0.86,0.59,0.07,1.22,1.42,2.15,2.66,3.04,2.15,1.99,1.56,1.57,3.16,3.16,3.16,3.16,1.23,0.34,0.30,0.83,0.88,2.72,1.22,0.85,0.77,0.47,2.77,2.51,0.53,0.90,1.66,1.36,1.73,2.65,1.11,1.68,2.14,0.48,0.10,0.69,2.18,0.40,0.37,0.04,1.00,1.05,0.25,2.39,2.90,2.00,0.16,0.80,0.78,0.54,0.30,0.27,0.61,1.15,1.79,2.05,1.94,0.56,0.82,1.46,1.14,1.04,1.14,1.50,1.90,2.34,2.36,2.61,2.02,1.21,0.45,0.31,1.10,1.58,1.81,1.46,0.09,1.43,0.35,0.28,0.00,0.15,0.41,0.25,0.08,0.02,0.01,0.01,0.01,0.00,0.03,0.03,0.08,0.14,0.11,0.11,0.15,0.18,0.14,0.13,0.12,0.12,0.06,0.00,0.03,0.05,0.05,0.00,0.12,0.24,0.43,0.21,0.04,0.03,0.43,0.44,0.35,0.32,0.32,0.25,0.24,0.21,0.15,0.21,0.01,0.32,0.04,0.15,0.11,0.16,0.17,0.54,0.74,0.51,0.42,0.39,0.42,0.44,0.37,0.14,0.19,0.24,0.02,0.29,0.26,0.19,0.05,0.13,0.15,0.15,0.19,0.22,0.32,0.37,0.29,0.26,0.22,0.21,0.18,0.18,0.18,0.16,0.15,0.16,0.14,0.13,0.12,0.12,0.11,0.11,0.11,0.13,0.13,0.08,0.00,0.03,0.02,0.01,0.01,0.00,0.00,0.01,0.02,0.03,0.03,0.03,0.03,0.03,0.02,0.01,0.02,0.00,0.01,0.02,0.02,0.00,0.03,0.04,0.05,0.05,0.10,0.14,0.03,0.01,0.03,0.03,0.02,0.01,0.01,0.03,0.00,0.03,0.01,0.00,0.03,0.10,0.13,0.11,0.17,0.13,0.10,0.22,0.16,0.24,0.67,0.74,0.71,0.46,0.34,0.30,0.27,0.31,0.30,0.32,0.37,0.38,0.38,0.43,0.47,0.46,0.49,0.52,0.52,0.52,0.56,0.53,0.47,0.46,0.45,0.38,0.22,0.31,0.50,0.58,0.57,0.49,0.34,0.14,0.13,0.14,0.15,0.19,0.24,0.24,0.26,0.26,0.25,0.25,0.24,0.18,0.08,0.01,0.12,0.13,0.12,0.13,0.15,0.17,0.19,0.33,0.32,0.25,0.21,0.22,0.19,0.14,0.09,0.03,0.02,0.10,0.11,0.16,0.22,0.23,0.25,0.25,0.24,0.24,0.24,0.26,0.22,0.19,0.16,0.10,0.05,0.05,0.03,0.03,0.03,0.03,0.00,0.03,0.04,0.05,0.10,0.17,0.18,0.15,0.16,0.17,0.24,0.38,0.50,0.60,0.64,0.52,0.39,0.30,0.22,0.16,0.07,0.02,0.12,0.19,0.26,0.25,0.25,0.22,0.24,0.26,0.29,0.30,0.30,0.37,0.36,0.35,0.32,0.26,0.25,0.30,0.35,0.29,0.26,0.24,0.34,0.35,0.29,0.22,0.21,0.23,0.24,0.27,0.32,0.31,0.32,0.33,0.34,0.33,0.37,0.36,0.35,0.39,0.47,0.51,0.49,0.46,0.48,0.46,0.41,0.34,0.36,0.41,0.42,0.40,0.29,0.16,0.18,0.12,0.18,0.07,0.02,0.02,0.03,0.05,0.06,0.17,0.22,0.26,0.25,0.26,0.31,0.34,0.35,0.38,0.39,0.40,0.40,0.37,0.35,0.33,0.34,0.32,0.30,0.28,0.27,0.27,0.24,0.24,0.21,0.18,0.11,0.06,0.05,0.00,0.01,0.05,0.07,0.07,0.10,0.11,0.10,0.07,0.12,0.15,0.17,0.20,0.25,0.23,0.22,0.22,0.22,0.24,0.27,0.30,0.37,0.37,0.35,0.38,0.45,0.48,0.51,0.54,0.58,0.58,0.54,0.55,0.56,0.54,0.52,0.47,0.46,0.48,0.44,0.37,0.34,0.32,0.36,0.30,0.24,0.22,0.21,0.17,0.17,0.15,0.19,0.24,0.20,0.21,0.21,0.19,0.25,0.19,0.16,0.11,0.17,0.19,0.20,0.10,0.13,0.12,0.12,0.16,0.15,0.15,0.15,0.11,0.09,0.05,0.03,0.03,0.02,0.04,0.04,0.04,0.04,0.03,0.01,0.01,0.01,0.02,0.03,0.02,0.06,0.07,0.13,0.14,0.18,0.19,0.18,0.18,0.15,0.13,0.14,0.15,0.13,0.11,0.10,0.10,0.11,0.11,0.12,0.13,0.14,0.15,0.14,0.13,0.10,0.06,0.03,0.05,0.06,0.02,0.00,0.00,0.05,0.08,0.08,0.08,0.11,0.10,0.10,0.08,0.02,0.02,0.02,0.02,0.02,0.02,0.01,0.02,0.04,0.04,0.05,0.12,0.10,0.05,0.06,0.08,0.06,0.03,0.05,0.03,0.00,0.05,0.11,0.06,0.05,0.06,0.09,0.08,0.10,0.10,0.13,0.13,0.10,0.10,0.08,0.06,0.06,0.08,0.05,0.05,0.06,0.05,0.05,0.06,0.06,0.08,0.09,0.08,0.10,0.12,0.11,0.11,0.17,0.14,0.11,0.09,0.11,0.08,0.08,0.08,0.07,0.07,0.08,0.08,0.09,0.08,0.08,0.07,0.08,0.07,0.06,0.06,0.06,0.05,0.05,0.05,0.07,0.06,0.06,0.08,0.07,0.06,0.06,0.07,0.06,0.09,0.09,0.10,0.17,0.18,0.15,0.09,0.06,0.08,0.04,0.04,0.07,0.08,0.06,0.05,0.05,0.04,0.03,0.02,0.02,0.01,0.00,0.02,0.04,0.06,0.06,0.09,0.10,0.12,0.13,0.05,0.03,0.13,0.14,0.11,0.12,0.15,0.10,0.06,0.11,0.13,0.14,0.20,0.15,0.13,0.13,0.13,0.03,0.06,0.03,0.01,0.03,0.02,0.07,0.07,0.13,0.11,0.11,0.10,0.10,0.11,0.11,0.13,0.13,0.14,0.16,0.14,0.13,0.12,0.13,0.13,0.13,0.14,0.11,0.11,0.09,0.09,0.05,0.02,0.04,0.04,0.05,0.09,0.07,0.05,0.07,0.05,0.01,0.01,0.01,0.03,0.00,0.00,0.02,0.02,0.02,0.01,0.00,0.01,0.02,0.01,0.02,0.02,0.02,0.02,0.01,0.02,0.03,0.03,0.01,0.03,0.02,0.02,0.02,0.08,0.11,0.07,0.05,0.06,0.08,0.10,0.10,0.08,0.08,0.08,0.08,0.07,0.08,0.08,0.08,0.08,0.08,0.08,0.06,0.03,0.02,0.02,0.09,0.13,0.10,0.00,0.02,0.02,0.11,0.13,0.07,0.15,0.17,0.13,0.10,0.11,0.08,0.11,0.13,0.14,0.12,0.08,0.07,0.06,0.07,0.05,0.08,0.10,0.10,0.10,0.12,0.13,0.16,0.16,0.15,0.16,0.13,0.12,0.13,0.13,0.12,0.11,0.11,0.11,0.10,0.08,0.08,0.06,0.05,0.06,0.05,0.06,0.05,0.03,0.03,0.03,0.02,0.02,0.00,0.01,0.02,0.03,0.03,0.05,0.06,0.06,0.05,0.03,0.00,0.02,0.03,0.05,0.06,0.09,0.10,0.10,0.10,0.10,0.11,0.10,0.09,0.07,0.06,0.08,0.10,0.14,0.17,0.14,0.11,0.00,0.02,0.07,0.07,0.09,0.09,0.05,0.04,0.02,0.04,0.02,0.00,0.02,0.05,0.06,0.06,0.05,0.03,0.04,0.05,0.04,0.04,0.03,0.03,0.02,0.04,0.05,0.06,0.06,0.06,0.06,0.05,0.05,0.04,0.03,0.03,0.03,0.03,0.01,0.04,0.05,0.02,0.03,0.03,0.01,0.02,0.01,0.01,0.00,0.00,0.01,0.03,0.03,0.03,0.05,0.05,0.06,0.05,0.05,0.06,0.07,0.07,0.08,0.09,0.09,0.09,0.08,0.08,0.11,0.15,0.17,0.15,0.12,0.13,0.11,0.10,0.13,0.13,0.11,0.11,0.08,0.07,0.03,0.08,0.06,0.00,0.02,0.12,0.17,0.12,0.07,0.05,0.04,0.03,0.04,0.05,0.07,0.05,0.02,0.07,0.10,0.00,0.03,0.07,0.17,0.16,0.06,0.08,0.09,0.05,0.05,0.08,0.08,0.07,0.03,0.02,0.05,0.04,0.04,0.03,0.03,0.03,0.01,0.01,0.05,0.08,0.05,0.02,0.02,0.12,0.14,0.12,0.10,0.08,0.06,0.05,0.05,0.04,0.04,0.04,0.04,0.04,0.04,0.03,0.03,0.03,0.03,0.03,0.03,0.00,0.00,0.00,0.00,0.00,0.00,0.00,0.03,0.05,0.03,0.00,0.02,0.04,0.02,0.04,0.05,0.02,0.02,0.07,0.04,0.02,0.03,0.02,0.04,0.11,0.09,0.05,0.02,0.01,0.04,0.11,0.08,0.05,0.06,0.07,0.06,0.04,0.05,0.06,0.05,0.05,0.05,0.05,0.05,0.04,0.03,0.04,0.04,0.03,0.02,0.02,0.01,0.00,0.01,0.00,0.02,0.04,0.05,0.01,0.03,0.05,0.06,0.05,0.13,0.12,0.03,0.01,0.00,0.03,0.01,0.04,0.07,0.05,0.06,0.06,0.07,0.06,0.05,0.05,0.06,0.07,0.06,0.06,0.06,0.05,0.06,0.08,0.06,0.06,0.08,0.08,0.09,0.08,0.10,0.09,0.07,0.08,0.07,0.07,0.06,0.09,0.08,0.06,0.04,0.03,0.03,0.06,0.05,0.03,0.05,0.06,0.06,0.04,0.03,0.03,0.01,0.02,0.02,0.03,0.03,0.03,0.02,0.04,0.00,0.00,0.05,0.03,0.00,0.01,0.00,0.03,0.03,0.06,0.07,0.07,0.07,0.03,0.06,0.10,0.07,0.03,0.01,0.03,0.00,0.02,0.00,0.06,0.08,0.01,0.10,0.13,0.11,0.05,0.03,0.02,0.02,0.01,0.01,0.01,0.00,0.00,0.00,0.00,0.03,0.06,0.05,0.06,0.06,0.05,0.06,0.06,0.05,0.05,0.05,0.05,0.05,0.06,0.06,0.08,0.06,0.05,0.07,0.09,0.08,0.08,0.06,0.07,0.08,0.07,0.06,0.06,0.04,0.05,0.06,0.08,0.06,0.04,0.02,0.06,0.06,0.05,0.05,0.02,0.03,0.04,0.05,0.06,0.03,0.02,0.02,0.02,0.03,0.00,0.00,0.00,0.02,0.01,0.00,0.01,0.00,0.02,0.11,0.07,0.02,0.02,0.03,0.01,0.09,0.06,0.04,0.03,0.05,0.02,0.00,0.01,0.01,0.02,0.03,0.06,0.03,0.03,0.03,0.07,0.06,0.08,0.08,0.06,0.06,0.07,0.07,0.06,0.05,0.05,0.05,0.11,0.16,0.10,0.04,0.05,0.10,0.10,0.14,0.15,0.13,0.10,0.12,0.11,0.09,0.10,0.10,0.10,0.08,0.08,0.07,0.08,0.09,0.07,0.07,0.07,0.05,0.02,0.02,0.01,0.01,0.01,0.01,0.05,0.08,0.08,0.06,0.06,0.06,0.06,0.05,0.05,0.03,0.03,0.03,0.00,0.00,0.00,0.00,0.01,0.00,0.01,0.02,0.01,0.05,0.08,0.03,0.06,0.04,0.02,0.01,0.02,0.05,0.04,0.03,0.02,0.06,0.07,0.05,0.02,0.04,0.02,0.00,0.03,0.05,0.05,0.02,0.04,0.02,0.02,0.00,0.00,0.00,0.01,0.02,0.00,0.00,0.05,0.07,0.07,0.02,0.03,0.05,0.01,0.00,0.01,0.02,0.03,0.01,0.00,0.02,0.03,0.00,0.02,0.01,0.05,0.07,0.06,0.03,0.02,0.04,0.04,0.06,0.07,0.07,0.03,0.03,0.03,0.03,0.04,0.05,0.10,0.08,0.07,0.06,0.07,0.07,0.06,0.08,0.06,0.05,0.06,0.02,0.03,0.03,0.05,0.08,0.06,0.05,0.05,0.09,0.08,0.05,0.03,0.04,0.03,0.04,0.03,0.05,0.03,0.03,0.03,0.02,0.02,0.08,0.06,0.03,0.02,0.03,0.05,0.00,0.01,0.00,0.00,0.00,0.01,0.01,0.02,0.04,0.02,0.05,0.08,0.09,0.08,0.04,0.01,0.02,0.04,0.04,0.02,0.00,0.01,0.02,0.05,0.03,0.02,0.00,0.07,0.05,0.07,0.10,0.05,0.02,0.05,0.02,0.01,0.00,0.00,0.00,0.00,0.00,0.00,0.01,0.02,0.02,0.01,0.03,0.02,0.01,0.03,0.05,0.02,0.01,0.00,0.00,0.01,0.00,0.00,0.00,0.00,0.01,0.00,0.02,0.00,0.02,0.03,0.01,0.00,0.02,0.03,0.00,0.00,0.00,0.04,0.04,0.06,0.06,0.09,0.09,0.06,0.05,0.03,0.02,0.03,0.02,0.01,0.02,0.02,0.03,0.00,0.00,0.00,0.00,0.01,0.01,0.01,0.01,0.00,0.00,0.00,0.03,0.02,0.02,0.00,0.05,0.02,0.01,0.02,0.04,0.04,0.01,0.00,0.01,0.01,0.01,0.06,0.03,0.01,0.02,0.00,0.01,0.00,0.00,0.00,0.00,0.02,0.02,0.02,0.01,0.02,0.03,0.03,0.05,0.05,0.05,0.05,0.04,0.04,0.05,0.04,0.01,0.00,0.02,0.05,0.03,0.05,0.06,0.06,0.04,0.03,0.05,0.09,0.06,0.03,0.04,0.10,0.04,0.03,0.03,0.06,0.06,0.06,0.04,0.05,0.04,0.00,0.00,0.01,0.00,0.00,0.03,0.04,0.06,0.03,0.03,0.06,0.07,0.04,0.03,0.01,0.01,0.00,0.01,0.01,0.04,0.02,0.00,0.02,0.00,0.04,0.03,0.03,0.05,0.03,0.02,0.04,0.01,0.02,0.04,0.05,0.01,0.01,0.01,0.01,0.00,0.00,0.00,0.01,0.00,0.00,0.02,0.03,0.02,0.03,0.02,0.03,0.03,0.02,0.02,0.03,0.03,0.03,0.03,0.00,0.01,0.00,0.01,0.02,0.01,0.04,0.05,0.03,0.06,0.06,0.05,0.05,0.03,0.03,0.04,0.05,0.07,0.08,0.06,0.06,0.06,0.05,0.05,0.06,0.05,0.06,0.06,0.07,0.05,0.03,0.07,0.04,0.05,0.04,0.03,0.03,0.02,0.05,0.05,0.03,0.02,0.00,0.02,0.05,0.05,0.05,0.07,0.09,0.07,0.03,0.01,0.00,0.02,0.01,0.00,0.00,0.04,0.08,0.11,0.14,0.20,0.18,0.10,0.05,0.05,0.05,0.03,0.02,0.02,0.02,0.02,0.00,0.02,0.01,0.01,0.00,0.02
0.02,0.02,0.03,0.03,0.04,0.07,0.08,0.05,0.05,0.05,0.04,0.04,0.05,0.09,0.14,0.07,0.04,0.04,0.03,0.05,0.04,0.03,0.05,0.04,0.01,0.01,0.02,0.01,0.00,0.01,0.01,0.02,0.01,0.02,0.03,0.04,0.06,0.06,0.07,0.04,0.01,0.00,0.02,0.03,0.03,0.02,0.01,0.02,0.00,0.02,0.02,0.01,0.02,0.08,0.07,0.03,0.02,0.03,0.02,0.06,0.04,0.03,0.02,0.02,0.02,0.03,0.01,0.00,0.01,0.01,0.00,0.02,0.02,0.02,0.01,0.01,0.00,0.02,0.02,0.01,0.00,0.02,0.00,0.00,0.00,0.02,0.02,0.00,0.03,0.05,0.06,0.04,0.02,0.02,0.02,0.02,0.02,0.00,0.01,0.00,0.00,0.00,0.04,0.05,0.05,0.03,0.02,0.02,0.03,0.03,0.03,0.03,0.02,0.02,0.01,0.03,0.04,0.02,0.05,0.05,0.04,0.03,0.07,0.00,0.06,0.05,0.09,0.09,0.04,0.05,0.05,0.06,0.02,0.01,0.01,0.01,0.02,0.02,0.05,0.05,0.05,0.03,0.03,0.02,0.00,0.02,0.00,0.00,0.01,0.00,0.00,0.02,0.03,0.02,0.02,0.00,0.02,0.03,0.02,0.02,0.01,0.00,0.02,0.00,0.01,0.00,0.01,0.02,0.02,0.01,0.01,0.01,0.02,0.01,0.01,0.01,0.04,0.04,0.05,0.03,0.03,0.01,0.00,0.05,0.06,0.00,0.01,0.01,0.02,0.01,0.00,0.01,0.00,0.00,0.01,0.01,0.00,0.01,0.01,0.01,0.01,0.01,0.00,0.02,0.02,0.01,0.03,0.04,0.01,0.08,0.04,0.04,0.07,0.05,0.06,0.06,0.02,0.00,0.00,0.00,0.00,0.05,0.05,0.01,0.00,0.00,0.01,0.02,0.02,0.00,0.00,0.01,0.03,0.04,0.01,0.01,0.04,0.04,0.00,0.05,0.10,0.09,0.07,0.05,0.04,0.03,0.03,0.03,0.04,0.03,0.02,0.00,0.01,0.00,0.00,0.05,0.05,0.04,0.03,0.03,0.05,0.03,0.04,0.03,0.03,0.05,0.05,0.04,0.04,0.04,0.04,0.07,0.08,0.07,0.05,0.05,0.06,0.03,0.03,0.03,0.03,0.02,0.00,0.02,0.03,0.02,0.01,0.03,0.00,0.01,0.02,0.00,0.00,0.03,0.03,0.10,0.08,0.04,0.02,0.02,0.01,0.02,0.02,0.00,0.00,0.02,0.00,0.00,0.01,0.01,0.01,0.00,0.00,0.00,0.01,0.02,0.02,0.01,0.00,0.01,0.03,0.02,0.02,0.02,0.11,0.05,0.03,0.02,0.00,0.02,0.00,0.02,0.02,0.01,0.02,0.00,0.01,0.03,0.03,0.02,0.00,0.01,0.01,0.00,0.03,0.06,0.03,0.01,0.00,0.01,0.01,0.00,0.00,0.01,0.02,0.03,0.01,0.02,0.01,0.01,0.01,0.02,0.01,0.03,0.05,0.00,0.01,0.01,0.00,0.00,0.00,0.01,0.01,0.01,0.00,0.01,0.02,0.05,0.03,0.02,0.03,0.02,0.02,0.07,0.03,0.02,0.00,0.00,0.00,0.00,0.00,0.00,0.00,0.01,0.00,0.02,0.02,0.02,0.03,0.03,0.03,0.03,0.02,0.03,0.00,0.02,0.03,0.03,0.03,0.02,0.02,0.03,0.02,0.04,0.07,0.06,0.04,0.03,0.02,0.06,0.06,0.03,0.02,0.03,0.02,0.04,0.08,0.06,0.04,0.05,0.02,0.01,0.00,0.00,0.04,0.00,0.01,0.00,0.02,0.01,0.05,0.01,0.00,0.04,0.03,0.02,0.00,0.01,0.01,0.00,0.02,0.01,0.00,0.00,0.01,0.03,0.03,0.02,0.00,0.00,0.00,0.03,0.05,0.02,0.00,0.00,0.02,0.02,0.01,0.02,0.02,0.02,0.00,0.01,0.00,0.01,0.01,0.00,0.00,0.02,0.03,0.03,0.01,0.01,0.01,0.02,0.03,0.03,0.02,0.06,0.10,0.10,0.07,0.05,0.04,0.05,0.06,0.06,0.05,0.05,0.03,0.03,0.05,0.04,0.06,0.04,0.01,0.01,0.00,0.00,0.01,0.02,0.03,0.04,0.08,0.12,0.07,0.03,0.00,0.02,0.05,0.02,0.01,0.00,0.03,0.00,0.01,0.02,0.01,0.02,0.04,0.05,0.04,0.03,0.00,0.02,0.01,0.00,0.02,0.05,0.02,0.01,0.01,0.01,0.02,0.04,0.01,0.03,0.01,0.01,0.04,0.02,0.08,0.05,0.07,0.06,0.00,0.00,0.03,0.02,0.00,0.02,0.04,0.03,0.01,0.00,0.01,0.03,0.05,0.05,0.05,0.06,0.04,0.01,0.00,0.01,0.01,0.01,0.02,0.06,0.07,0.06,0.04,0.02,0.00,0.01,0.02,0.02,0.02,0.02,0.02,0.04,0.02,0.02,0.01,0.00,0.01,0.02,0.02,0.02,0.03,0.04,0.03,0.03,0.02,0.03,0.05,0.04,0.03,0.02,0.03,0.03,0.03,0.03,0.03,0.02,0.03,0.06,0.06,0.07,0.05,0.05,0.04,0.02,0.02,0.01,0.01,0.00,0.02,0.05,0.05,0.04,0.02,0.04,0.05,0.02,0.02,0.01,0.03,0.03,0.03,0.05,0.07,0.08,0.06,0.05,0.05,0.06,0.08,0.07,0.05,0.04,0.03,0.02,0.05,0.06,0.06,0.05,0.04,0.02,0.02,0.02,0.01,0.01,0.00,0.00,0.01,0.02,0.02,0.02,0.03,0.01,0.00,0.00,0.00,0.02,0.02,0.00,0.02,0.00,0.03,0.07,0.05,0.01,0.00,0.02,0.03,0.03,0.02,0.03,0.01,0.00,0.03,0.07,0.05,0.01,0.04,0.07,0.06,0.08,0.01,0.10,0.08,0.07,0.09,0.10,0.06,0.01,0.02,0.01,0.00,0.02,0.02,0.03,0.02,0.03,0.03,0.02,0.03,0.03,0.03,0.01,0.00,0.00,0.01,0.00,0.02,0.00,0.00,0.01,0.03,0.01,0.01,0.02,0.03,0.02,0.03,0.01,0.03,0.04,0.02,0.02,0.02,0.03,0.03,0.02,0.04,0.01,0.02,0.06,0.06,0.05,0.06,0.06,0.00,0.04,0.05,0.06,0.02,0.03,0.01,0.06,0.11,0.03,0.08,0.16,0.26,0.33,0.14,0.13,0.20,0.23,0.06,0.01,0.11,0.31,0.38,0.55,0.77,0.80,0.50,0.11,1.24,1.66,0.82,0.20,0.06,1.15,2.06,2.66,2.58,2.15,1.94,2.53,1.72,0.97,0.84,0.18,0.33,0.29,0.46,0.80,0.38,0.82,2.19,2.29,2.72,2.20,0.87,0.13,1.08,1.32,0.12,1.35,1.44,1.20,0.93,2.62,2.24,0.44,0.18,0.98,3.16,3.16,3.16,2.02,0.06,2.28,3.17,3.17,3.17,3.17,1.68,0.42,3.16,3.16,3.16,3.16,2.32,0.00,1.10,1.95,1.76,0.19,0.96,2.65,3.17,3.17,3.17,3.17,3.17,3.17,1.01,3.16,3.16,3.16,3.16,3.16,3.16,3.16,3.16,0.10,2.13,1.34,1.20,1.45,1.21,0.50,0.23,1.02,1.74,2.06,1.28,1.49,1.97,1.79,1.83,2.05,1.92,1.42,0.96,1.06,1.72,2.78,3.16,3.16,1.75,0.56,0.14,1.15,3.01,3.17,3.17,3.17,0.62,3.16,2.72,0.44,0.47,1.01,3.16,3.16,2.04,1.38,2.93,1.70,1.30,2.13,3.17,3.16,1.86,2.66,3.17,1.56,1.41,1.97,2.71,2.50,1.41,0.20,0.26,0.80,0.31,1.21,0.87,0.33,0.62,0.95,1.08,0.35,0.40,0.59,0.93,1.54,1.98,2.51,2.29,0.80,3.03,3.16,3.16,3.16,3.16,2.09,1.61,0.94,0.04,0.68,0.62,0.37,1.11,2.11,1.25,0.40,1.62,2.77,1.60,1.83,1.32,0.14,0.57,0.47,1.32,1.00,0.68,0.20,1.01,1.34,1.40,2.46,3.17,2.96,0.34,2.29,1.43,0.24,0.91,1.08,2.30,3.17,3.17,2.58,0.27,0.99,0.38,1.17,2.72,2.87,0.81,1.17,0.63,0.62,1.02,1.42,1.41,1.06,0.42,0.27,0.62,0.18,0.91,1.57,0.94,1.16,0.61,0.85,1.65,0.90,1.39,3.16,3.16,3.16,2.12,1.31,0.18,2.13,3.17,3.17,3.17,0.00,3.16,3.16,2.33,1.50,0.41,1.08,2.53,2.09,1.62,0.14,0.61,0.45,0.61,2.28,3.17,3.17,2.38,0.88,1.82,1.40,1.09,1.04,0.80,0.52,1.76,1.91,1.38,0.73,2.39,2.05,0.66,0.58,0.64,0.08,0.24,0.24,0.19,0.24,0.58,0.13,0.76,0.35,0.16,1.11,1.44,1.05,1.00,2.51,3.00,1.78,1.68,3.16,2.35,0.93,0.11,0.04,0.47,0.88,0.50,0.00,0.03,0.40,0.93,0.97,0.65,1.67,0.55,1.80,2.15,3.17,3.17,2.65,1.75,3.16,3.16,0.94,0.72,0.01,1.41,2.17,1.65,0.43,0.64,1.85,1.55,0.36,0.96,1.51,1.11,0.96,0.36,2.27,2.11,2.18,2.03,1.34,1.01,0.68,0.62,1.60,2.12,0.20,0.75,0.71,0.63,0.87,1.01,0.62,0.54,0.35,0.12,0.46,1.52,2.67,2.83,2.06,1.54,2.17,2.48,2.75,0.25,3.16,3.16,3.16,2.10,0.83,0.88,1.33,1.10,0.42,0.19,0.33,0.17,0.45,0.13,0.19,1.07,1.18,0.18,0.27,0.88,1.03,1.12,0.30,2.21,3.17,2.80,0.91,1.66,1.61,0.48,3.16,3.17,3.12,0.58,1.15,2.53,2.44,2.26,2.15,1.52,0.38,0.48,0.38,0.32,0.46,0.99,0.74,0.18,0.33,0.04,0.56,1.06,0.82,0.62,0.43,0.38,1.25,1.89,2.36,2.32,1.49,0.89,1.98,1.45,0.90,0.30,0.24,1.25,3.06,3.15,0.90,2.49,3.16,1.53,0.68,0.48,0.18,0.45,0.71,0.80,0.92,0.83,0.74,0.11,0.66,0.68,0.62,2.20,2.80,3.17,3.17,3.17,0.93,3.16,3.16,3.16,2.88,1.23,0.29,0.14,0.07,0.62,0.20,1.21,0.89,1.00,1.83,1.34,0.56,1.01,1.10,1.42,0.71,0.03,0.76,0.37,0.85,0.60,0.37,1.57,1.36,0.17,0.91,0.69,0.48,0.87,0.52,0.45,0.52,0.75,0.78,0.80,0.45,0.47,0.83,1.25,1.41,0.24,1.38,3.17,3.17,3.17,0.91,1.02,1.42,1.39,2.04,3.05,3.00,2.56,0.76,0.59,0.68,0.31,2.23,2.07,0.72,0.38,0.16,0.24,0.19,0.09,0.32,0.35,0.39,0.11,0.08,1.34,0.98,0.23,0.86,0.68,2.08,0.50,0.00,0.30,0.54,1.01,0.74,1.37,1.79,1.90,2.18,1.16,0.19,0.77,1.53,1.50,1.30,0.71,0.78,1.70,1.36,0.06,1.18,2.33,2.62,1.42,0.18,0.93,1.86,2.28,1.69,0.01,1.94,2.90,3.16,2.72,2.19,1.09,0.24,0.97,3.16,3.17,3.17,1.87,3.16,1.70,0.57,0.50,0.66,2.18,2.31,0.54,2.24,2.65,3.17,2.50,1.20,3.16,3.16,3.16,1.93,1.76,1.79,0.10,0.35,0.83,1.99,1.71,1.02,0.83,0.62,0.67,0.06,0.11,0.19,0.93,1.33,1.80,2.08,1.66,0.17,2.15,2.12,1.18,1.07,0.54,0.33,0.68,0.50,0.01,0.99,1.44,0.89,0.39,1.29,1.89,0.22,0.56,1.00,1.98,0.84,0.04,1.27,0.76,3.17,3.17,3.07,2.47,3.16,3.16,0.73,0.08,1.06,2.21,1.47,0.65,1.99,2.69,2.03,0.58,0.49,0.52,0.24,0.66,0.60,0.34,0.72,1.58,0.58,0.88,2.32,3.17,3.17,2.79,2.06,1.60,0.81,1.10,0.54,0.15,0.22,0.91,1.06,0.54,0.35,0.69,0.73,0.85,0.52,0.72,1.93,2.57,1.90,0.42,1.77,1.83,1.44,1.94,0.35,1.41,1.79,0.66,0.32,1.60,1.20,1.09,1.13,0.16,0.50,0.49,0.24,0.17,0.26,0.27,0.18,0.08,0.10,0.00,0.02,0.02,0.03,0.04,0.06,0.03,0.01,0.02,0.00,0.03,0.01,0.03,0.04,0.06,0.05,0.10,0.01,0.10,0.06,0.19,0.24,0.22,0.03,0.45,0.61,0.56,0.48,0.01,0.05,0.08,0.51,0.93,0.71,0.48,0.46,0.18,0.44,0.36,0.04,0.11,0.13,0.08,0.25,0.19,0.05,0.24,0.77,0.91,0.53,0.38,0.23,0.18,0.21,0.09,0.02,0.08,0.07,0.02,0.06,0.06,0.08,0.10,0.10,0.11,0.14,0.12,0.13,0.18,0.16,0.17,0.19,0.20,0.20,0.21,0.22,0.23,0.23,0.25,0.25,0.25,0.24,0.25,0.25,0.22,0.21,0.22,0.21,0.22,0.21,0.19,0.19,0.20,0.19,0.19,0.18,0.14,0.15,0.13,0.11,0.11,0.11,0.12,0.11,0.11,0.08,0.09,0.08,0.09,0.08,0.03,0.05,0.09,0.10,0.05,0.02,0.02,0.05,0.02,0.06,0.06,0.03,0.01,0.02,0.03,0.03,0.02,0.05,0.02,0.10,0.10,0.10,0.10,0.02,0.06,0.05,0.03,0.03,0.02,0.08,0.16,0.18,0.10,0.00,0.04,0.08,0.07,0.12,0.16,0.17,0.12,0.06,0.01,0.00,0.02,0.02,0.01,0.02,0.02,0.02,0.04,0.03,0.03,0.07,0.00,0.08,0.02,0.01,0.15,0.26,0.27,0.27,0.10,0.25,0.27,0.13,0.04,0.11,0.10,0.02,0.10,0.19,0.21,0.17,0.22,0.21,0.17,0.18,0.17,0.24,0.15,0.05,0.22,0.21,0.05,0.22,0.10,0.10,0.07,0.09,0.15,0.15,0.16,0.15,0.20,0.21,0.19,0.18,0.18,0.17,0.12,0.12,0.15,0.13,0.08,0.06,0.04,0.04,0.04,0.02,0.02,0.00,0.00,0.00,0.01,0.00,0.02,0.04,0.03,0.06,0.08,0.13,0.19,0.21,0.20,0.19,0.21,0.23,0.16,0.18,0.16,0.14,0.08,0.02,0.02,0.00,0.04,0.08,0.11,0.09,0.07,0.16,0.10,0.03,0.05,0.08,0.14,0.16,0.21,0.26,0.30,0.35,0.35,0.36,0.41,0.40,0.36,0.36,0.34,0.33,0.32,0.30,0.28,0.26,0.22,0.21,0.19,0.19,0.21,0.24,0.22,0.23,0.23,0.26,0.31,0.35,0.36,0.37,0.38,0.44,0.50,0.56,0.62,0.67,0.72,0.73,0.72,0.68,0.62,0.41,0.41,0.39,0.24,0.22,0.18,0.13,0.11,0.07,0.06,0.05,0.06,0.03,0.04,0.08,0.11,0.16,0.23,0.29,0.30,0.33,0.34,0.36,0.32,0.31,0.30,0.35,0.35,0.36,0.40,0.50,0.48,0.46,0.51,0.59,0.65,0.67,0.66,0.66,0.66,0.65,0.60,0.55,0.45,0.38,0.42,0.41,0.38,0.41,0.36,0.39,0.36,0.39,0.28,0.37,0.53,0.48,0.27,0.14,0.13,0.15,0.19,0.10,0.03,0.04,0.04,0.00,0.00,0.03,0.16,0.21,0.24,0.31,0.30,0.33,0.25,0.21,0.20,0.19,0.18,0.18,0.18,0.17,0.16,0.14,0.15,0.14,0.14,0.15,0.11,0.08,0.05,0.05,0.08,0.13,0.10,0.07,0.08,0.07,0.06,0.07,0.07,0.07,0.08,0.11,0.10,0.12,0.14,0.15,0.18,0.18,0.19,0.18,0.18,0.16,0.14,0.14,0.13,0.13,0.13,0.11,0.10,0.08,0.05,0.04,0.00,0.00,0.02,0.01,0.01,0.02,0.02,0.02,0.03,0.01,0.01,0.02,0.01,0.03,0.01,0.00,0.02,0.06,0.08,0.03,0.01,0.02,0.05,0.08,0.08,0.10,0.12,0.02,0.00,0.01,0.02,0.03,0.01,0.00,0.03,0.02,0.05,0.06,0.10,0.13,0.14,0.15,0.19,0.17,0.11,0.06,0.00,0.10,0.17,0.22,0.27,0.29,0.28,0.31,0.35,0.34,0.23,0.17,0.16,0.11,0.04,0.00,0.02,0.04,0.06,0.06,0.05,0.07,0.08,0.07,0.07,0.07,0.09,0.06,0.06,0.11,0.11,0.10,0.11,0.08,0.08,0.08,0.07,0.05,0.06,0.06,0.04,0.05,0.03,0.05,0.11,0.16,0.21,0.17,0.20,0.18,0.17,0.15,0.10,0.06,0.03,0.03,0.02,0.04,0.08,0.04,0.03,0.05,0.07,0.28,0.33,0.14,0.08,0.06,0.09,0.09,0.04,0.02,0.05,0.03,0.03,0.02,0.01,0.00,0.00,0.03,0.04,0.04,0.06,0.04,0.02,0.00,0.03,0.02,0.04,0.06,0.07,0.08,0.04,0.05,0.04,0.01,0.01,0.01,0.02,0.03,0.00,0.00,0.00,0.00,0.03,0.03,0.01,0.01,0.00,0.00,0.00,0.01,0.01,0.04,0.01,0.00,0.00,0.00,0.01,0.00,0.00,0.01,0.02,0.01,0.02,0.03,0.03,0.02,0.03,0.02,0.03,0.04,0.05,0.07,0.09,0.02,0.03,0.04,0.04,0.03,0.03,0.06,0.00,0.06,0.02,0.00,0.01,0.01,0.00,0.05,0.03,0.02,0.01,0.06,0.08,0.04,0.00,0.00,0.04,0.04,0.03,0.01,0.00,0.02,0.02,0.03,0.04,0.01,0.00,0.00,0.01,0.01,0.00,0.02,0.03,0.03,0.02,0.03,0.03,0.04,0.03,0.02,0.01,0.02,0.03,0.03,0.04,0.05,0.03,0.05,0.09,0.06,0.02,0.03,0.02,0.01,0.00,0.01,0.03,0.03,0.08,0.04,0.04,0.03,0.00,0.00,0.01,0.01,0.03,0.04,0.06,0.09,0.09,0.11,0.09,0.07,0.07,0.03,0.02,0.02,0.02,0.02,0.01,0.00,0.01,0.00,0.02,0.02,0.01,0.08,0.08,0.07,0.04,0.04,0.06,0.06,0.01,0.01,0.01,0.02,0.02,0.01,0.05,0.06,0.03,0.05,0.03,0.03,0.05,0.07,0.08,0.05,0.05,0.06,0.03,0.01,0.03,0.06,0.06,0.05,0.04,0.04,0.03,0.03,0.03,0.02,0.03,0.02,0.03,0.05,0.02,0.02,0.02,0.03,0.02,0.07,0.05,0.02,0.02,0.06,0.05,0.01,0.00,0.02,0.00,0.02,0.02,0.02,0.04,0.02,0.04,0.05,0.01,0.05,0.02,0.03,0.02,0.03,0.02,0.02,0.01,0.01,0.03,0.03,0.04,0.04,0.04,0.03,0.05,0.02,0.06,0.05,0.05,0.08,0.06,0.04,0.03,0.03,0.04,0.04,0.03,0.05,0.06,0.04,0.03,0.04,0.04,0.01,0.00,0.02,0.05,0.05,0.03,0.04,0.05,0.03,0.01,0.01,0.00,0.00,0.00,0.00,0.01,0.01,0.00,0.00,0.00,0.00,0.00,0.01,0.01,0.02,0.05,0.00,0.04,0.00,0.02,0.05,0.04,0.06,0.05,0.05,0.04,0.01,0.01,0.05,0.05,0.02,0.00,0.01,0.01,0.02,0.03,0.03,0.05,0.11,0.11,0.05,0.03,0.04,0.06,0.05,0.07,0.10,0.09,0.06,0.07,0.08,0.10,0.05,0.05,0.06,0.05,0.05,0.03,0.03,0.01,0.05,0.06,0.00,0.00,0.06,0.02,0.00,0.05,0.03,0.03,0.01,0.06,0.05,0.08,0.11,0.07,0.05,0.04,0.10,0.13,0.18,0.20,0.20,0.04,0.02,0.07,0.09,0.10,0.10,0.08,0.09,0.09,0.09,0.09,0.09,0.11,0.10,0.09,0.09,0.08,0.06,0.07,0.05,0.03,0.05,0.08,0.10,0.13,0.12,0.10,0.10,0.08,0.07,0.09,0.07,0.03,0.00,0.00,0.00,0.02,0.01,0.01,0.06,0.06,0.12,0.10,0.09,0.11,0.06,0.07,0.09,0.08,0.00,0.02,0.02,0.02,0.02,0.00,0.00,0.00,0.00,0.00,0.00,0.01,0.01,0.02,0.02,0.04,0.02,0.00,0.00,0.01,0.03,0.02,0.03,0.03,0.01,0.00,0.05,0.02,0.01,0.01,0.00,0.01,0.01,0.02,0.01,0.00,0.00,0.00,0.03,0.01,0.03,0.04,0.03,0.01,0.01,0.03,0.05,0.05,0.05,0.03,0.06,0.04,0.05,0.02,0.01,0.01,0.00,0.04,0.04,0.02,0.00,0.00,0.10,0.07,0.02,0.00,0.00,0.01,0.04,0.06,0.01,0.01,0.03,0.09,0.08,0.00,0.00,0.02,0.02,0.00,0.02,0.02,0.01,0.01,0.00,0.01,0.01,0.01,0.01,0.00,0.02,0.01,0.02,0.02,0.03,0.03,0.04,0.05,0.04,0.04,0.05,0.05,0.04,0.02,0.05,0.04,0.01,0.03,0.01,0.03,0.06,0.05,0.03,0.03,0.04,0.02,0.00,0.00,0.02,0.01,0.05,0.05,0.02,0.01,0.01,0.00,0.02,0.02,0.04,0.00,0.00,0.00,0.01,0.02,0.04,0.05,0.03,0.03,0.03,0.03,0.02,0.03,0.04,0.04,0.03,0.00,0.00,0.00,0.00,0.02,0.05,0.18,0.14,0.11,0.05,0.03,0.02,0.07,0.10,0.09,0.07,0.06,0.01,0.00,0.01,0.04,0.04,0.04,0.01,0.00,0.01,0.01,0.01,0.08,0.10,0.03,0.00,0.00,0.01,0.05,0.16,0.16,0.13,0.04,0.03,0.07,0.06,0.06,0.05,0.06,0.06,0.06,0.06,0.04,0.05,0.03,0.03,0.03,0.03,0.01,0.06,0.04,0.02,0.04,0.06,0.06,0.04,0.05,0.03,0.02,0.03,0.02,0.02,0.03,0.03,0.03,0.06,0.05,0.03,0.05,0.05,0.05,0.05,0.06,0.06,0.06,0.07,0.10,0.07,0.07,0.07,0.06,0.02,0.03,0.04,0.08,0.06,0.08,0.10,0.12,0.11,0.14,0.19,0.21,0.15,0.16,0.14,0.11,0.11,0.09,0.04,0.07,0.09,0.10,0.09,0.10,0.09,0.08,0.08,0.07,0.05,0.07,0.06,0.06,0.06,0.05,0.03,0.03,0.00,0.02,0.02,0.02,0.00,0.02,0.01,0.06,0.03,0.03,0.03,0.02,0.05,0.02,0.05,0.00,0.04,0.00,0.02,0.02,0.05,0.06,0.03,0.03,0.01,0.00,0.02,0.03,0.03,0.02,0.03,0.02,0.02,0.03,0.03,0.04,0.03,0.05,0.05,0.06,0.05,0.06,0.06,0.07,0.05,0.05,0.04,0.04,0.05,0.04,0.02,0.03,0.02,0.03,0.02,0.02,0.02,0.03,0.02,0.02,0.00,0.02,0.02,0.01,0.02,0.03,0.04,0.03,0.02,0.03,0.03,0.03,0.02,0.01,0.00,0.01,0.02,0.02,0.01,0.00,0.01,0.02,0.04,0.02,0.02,0.07,0.00,0.03,0.06,0.18,0.11,0.02,0.00,0.05,0.02,0.00,0.01,0.03,0.03,0.00,0.00,0.01,0.01,0.00,0.00,0.00,0.02,0.00,0.03,0.03,0.03,0.05,0.02,0.08,0.02,0.00,0.00,0.02,0.02,0.04,0.04,0.03,0.04,0.03,0.01,0.00,0.01,0.02,0.02,0.00,0.00,0.01,0.01,0.00,0.00,0.00,0.02,0.03,0.02,0.02,0.02,0.03,0.03,0.04,0.03,0.04,0.04,0.05,0.06,0.05,0.05,0.03,0.03,0.04,0.01,0.01,0.00,0.02,0.02,0.04,0.03,0.00,0.00,0.01,0.01,0.02,0.03,0.04,0.01,0.06,0.07,0.10,0.00,0.00,0.05,0.02,0.01,0.00,0.00,0.02,0.01,0.00,0.00,0.00,0.00,0.01,0.00,0.01,0.00,0.00,0.00,0.05,0.01,0.03,0.05,0.04,0.01,0.02,0.02,0.08,0.04,0.02,0.05,0.06,0.07,0.10,0.09,0.06,0.04,0.06,0.08,0.03,0.03,0.03,0.04,0.05,0.03,0.02,0.03,0.03,0.02,0.05,0.05,0.09,0.08,0.03,0.05,0.05,0.06,0.05,0.05,0.04,0.04,0.04,0.02,0.02,0.02,0.01,0.02,0.05,0.00,0.00,0.00,0.00,0.01,0.03,0.09,0.08,0.03,0.18,0.15,0.09,0.06,0.07,0.06,0.05,0.05,0.06,0.06,0.05,0.06,0.06,0.06,0.05,0.05,0.07,0.06,0.05,0.04,0.03,0.02,0.03,0.06,0.04,0.00,0.03,0.05,0.04,0.06,0.04,0.03,0.04,0.04,0.05,0.04,0.03,0.00,0.02,0.01,0.01,0.00,0.02,0.08,0.05,0.00,0.03,0.05,0.06,0.05,0.05,0.02,0.03,0.04
0.00,0.02,0.00,0.00,0.01,0.04,0.04,0.02,0.02,0.07,0.08,0.03,0.02,0.02,0.03,0.02,0.00,0.00,0.01,0.00,0.00,0.00,0.00,0.00,0.00,0.02,0.01,0.02,0.02,0.01,0.02,0.01,0.02,0.03,0.02,0.02,0.02,0.02,0.02,0.02,0.03,0.02,0.01,0.00,0.00,0.02,0.03,0.03,0.03,0.05,0.04,0.01,0.03,0.02,0.02,0.01,0.02,0.05,0.04,0.03,0.04,0.04,0.02,0.04,0.09,0.10,0.05,0.02,0.03,0.03,0.02,0.01,0.00,0.02,0.03,0.01,0.03,0.05,0.05,0.11,0.11,0.06,0.03,0.02,0.02,0.03,0.04,0.04,0.02,0.01,0.01,0.01,0.00,0.03,0.05,0.05,0.04,0.04,0.03,0.01,0.00,0.01,0.02,0.01,0.01,0.00,0.01,0.01,0.02,0.06,0.02,0.00,0.01,0.00,0.01,0.05,0.03,0.01,0.01,0.03,0.01,0.01,0.02,0.01,0.01,0.01,0.00,0.00,0.01,0.00,0.00,0.00,0.01,0.01,0.01,0.00,0.01,0.03,0.05,0.06,0.05,0.00,0.00,0.04,0.06,0.06,0.02,0.01,0.03,0.04,0.00,0.01,0.02,0.04,0.03,0.02,0.03,0.03,0.02,0.02,0.05,0.03,0.03,0.01,0.00,0.02,0.02,0.00,0.00,0.00,0.02,0.02,0.01,0.00,0.01,0.03,0.01,0.02,0.03,0.04,0.03,0.03,0.02,0.00,0.01,0.02,0.02,0.02,0.02,0.02,0.02,0.03,0.02,0.00,0.02,0.02,0.02,0.03,0.02,0.02,0.03,0.00,0.03,0.04,0.03,0.06,0.06,0.01,0.02,0.00,0.02,0.05,0.06,0.06,0.08,0.02,0.02,0.05,0.02,0.03,0.03,0.02,0.02,0.01,0.00,0.02,0.02,0.03,0.04,0.02,0.02,0.03,0.03,0.03,0.03,0.01,0.03,0.05,0.03,0.02,0.02,0.05,0.06,0.06,0.06,0.06,0.06,0.08,0.06,0.05,0.04,0.03,0.01,0.00,0.02,0.02,0.03,0.04,0.06,0.05,0.04,0.02,0.02,0.01,0.00,0.01,0.01,0.10,0.10,0.04,0.02,0.02,0.00,0.01,0.00,0.00,0.00,0.00,0.00,0.02,0.02,0.02,0.03,0.03,0.01,0.03,0.10,0.06,0.03,0.00,0.00,0.01,0.03,0.05,0.03,0.02,0.02,0.01,0.00,0.00,0.01,0.00,0.00,0.01,0.01,0.00,0.00,0.00,0.02,0.03,0.00,0.01,0.00,0.02,0.02,0.03,0.02,0.02,0.01,0.02,0.03,0.04,0.03,0.00,0.00,0.01,0.01,0.00,0.02,0.00,0.00,0.03,0.03,0.00,0.02,0.04,0.03,0.06,0.02,0.01,0.03,0.05,0.03,0.03,0.04,0.01,0.00,0.01,0.00,0.05,0.00,0.00,0.00,0.02,0.03,0.03,0.02,0.02,0.03,0.04,0.03,0.02,0.05,0.00,0.19,0.12,0.04,0.02,0.00,0.02,0.02,0.02,0.00,0.01,0.02,0.02,0.02,0.01,0.00,0.00,0.04,0.08,0.05,0.02,0.02,0.01,0.02,0.01,0.02,0.01,0.03,0.06,0.07,0.06,0.06,0.06,0.05,0.06,0.05,0.04,0.06,0.06,0.02,0.04,0.05,0.03,0.02,0.03,0.05,0.05,0.03,0.04,0.05,0.02,0.02,0.02,0.03,0.05,0.05,0.04,0.03,0.04,0.03,0.03,0.01,0.01,0.04,0.04,0.05,0.04,0.04,0.07,0.10,0.06,0.03,0.03,0.05,0.08,0.03,0.04,0.05,0.07,0.04,0.01,0.02,0.01,0.02,0.01,0.03,0.00,0.02,0.02,0.00,0.01,0.02,0.01,0.05,0.04,0.02,0.01,0.03,0.09,0.05,0.06,0.02,0.02,0.03,0.03,0.02,0.00,0.00,0.00,0.03,0.05,0.03,0.02,0.01,0.01,0.02,0.02,0.00,0.08,0.10,0.01,0.05,0.03,0.05,0.07,0.08,0.03,0.01,0.02,0.05,0.04,0.01,0.01,0.01,0.02,0.00,0.03,0.00,0.01,0.03,0.06,0.05,0.08,0.03,0.01,0.01,0.02,0.03,0.03,0.02,0.02,0.03,0.03,0.02,0.01,0.00,0.01,0.00,0.01,0.00,0.00,0.00,0.00,0.01,0.01,0.00,0.03,0.00,0.00,0.02,0.02,0.00,0.00,0.02,0.00,0.00,0.01,0.01,0.00,0.01,0.02,0.00,0.02,0.02,0.02,0.01,0.05,0.06,0.05,0.02,0.02,0.03,0.02,0.00,0.00,0.00,0.01,0.02,0.01,0.00,0.01,0.02,0.02,0.01,0.01,0.03,0.00,0.02,0.01,0.04,0.02,0.00,0.02,0.00,0.01,0.00,0.02,0.02,0.00,0.03,0.11,0.08,0.02,0.00,0.04,0.01,0.01,0.03,0.03,0.05,0.05,0.06,0.04,0.04,0.01,0.01,0.05,0.07,0.05,0.07,0.06,0.03,0.02,0.04,0.05,0.05,0.04,0.03,0.03,0.04,0.04,0.05,0.03,0.05,0.06,0.09,0.09,0.06,0.05,0.03,0.04,0.04,0.00,0.01,0.01,0.02,0.02,0.02,0.00,0.00,0.00,0.03,0.03,0.00,0.01,0.00,0.02,0.01,0.01,0.00,0.01,0.01,0.01,0.01,0.02,0.03,0.03,0.02,0.03,0.04,0.00,0.02,0.02,0.03,0.03,0.00,0.00,0.02,0.02,0.02,0.03,0.02,0.00,0.00,0.01,0.03,0.02,0.00,0.01,0.00,0.00,0.00,0.00,0.00,0.01,0.00,0.01,0.01,0.01,0.02,0.01,0.02,0.00,0.01,0.03,0.06,0.01,0.04,0.08,0.07,0.05,0.05,0.03,0.02,0.01,0.07,0.08,0.01,0.02,0.02,0.01,0.01,0.00,0.00,0.00,0.02,0.05,0.01,0.01,0.04,0.06,0.03,0.02,0.03,0.04,0.03,0.01,0.03,0.03,0.01,0.02,0.02,0.02,0.03,0.04,0.03,0.01,0.02,0.05,0.07,0.05,0.06,0.00,0.01,0.02,0.05,0.09,0.13,0.21,0.32,0.19,0.02,0.34,0.89,0.72,0.03,0.06,0.03,0.27,0.62,1.53,1.61,1.36,1.35,1.46,1.09,0.51,0.27,0.05,0.36,0.66,1.36,1.73,1.36,1.47,0.90,0.01,0.98,1.31,2.54,3.17,3.17,2.88,1.12,0.37,1.42,2.64,3.07,1.99,1.43,2.66,2.32,2.31,3.16,1.50,1.10,2.62,3.17,3.17,1.90,1.86,3.16,3.02,1.72,1.76,2.11,0.75,1.56,2.07,0.58,1.74,2.66,0.85,0.32,0.92,1.09,0.47,0.21,0.51,0.90,0.70,2.11,2.52,3.16,3.16,3.16,0.96,2.04,3.17,2.49,0.45,0.96,2.45,3.17,3.17,3.17,3.17,3.17,2.67,3.16,3.16,3.16,3.16,3.16,3.16,0.70,0.02,0.21,0.73,1.64,1.53,1.95,1.61,0.77,0.01,0.65,0.14,1.17,0.96,0.11,2.70,3.16,1.01,0.09,0.32,0.27,0.48,0.14,0.03,0.97,1.43,2.20,0.11,2.30,3.17,3.10,1.65,0.98,0.56,1.13,1.66,0.88,0.49,0.95,1.68,2.12,1.10,0.56,1.23,0.06,1.59,1.79,0.17,2.80,3.06,2.49,0.83,0.26,0.58,1.62,2.53,2.40,1.70,1.55,1.16,2.00,1.42,1.93,3.16,3.16,3.16,2.69,3.02,2.42,1.80,1.14,0.18,1.08,2.17,0.52,0.96,1.76,1.94,0.64,0.40,0.10,1.14,0.86,0.23,0.21,1.58,1.99,1.40,0.21,0.07,1.26,1.65,0.02,0.45,0.60,1.36,1.08,1.29,2.06,2.46,0.70,0.29,0.13,0.11,0.34,1.09,1.23,1.10,0.67,1.11,2.25,1.69,0.56,0.06,0.81,0.62,0.55,1.22,0.92,0.48,0.33,0.36,0.81,0.15,1.22,2.67,3.17,2.29,0.85,0.34,2.41,3.16,3.10,0.92,1.10,1.45,1.50,2.02,0.71,0.68,1.83,2.56,2.21,1.18,2.50,1.96,1.31,0.15,0.63,1.69,2.07,1.02,0.50,0.58,1.02,1.02,0.32,1.12,1.17,0.84,1.24,1.13,0.83,0.03,0.57,2.36,3.17,3.17,3.17,3.17,3.17,2.77,0.93,2.32,3.16,2.74,2.99,2.73,0.87,1.08,3.17,3.17,3.17,3.17,0.03,0.98,2.75,3.16,3.16,2.11,1.13,1.08,2.76,3.17,3.17,0.98,0.23,0.47,1.25,2.80,0.39,2.18,3.16,3.04,1.89,2.12,0.30,1.36,0.13,0.23,0.18,0.26,0.00,1.10,1.21,0.80,0.54,0.42,0.32,0.27,0.23,0.12,0.61,0.40,0.05,0.17,0.26,0.53,1.18,1.32,1.49,1.77,1.77,0.75,0.89,3.00,3.16,3.16,3.16,2.77,1.14,0.59,1.13,0.85,0.59,1.74,3.17,1.80,0.32,2.47,2.06,2.77,3.09,2.68,1.05,1.60,3.17,3.17,3.17,3.17,2.53,3.16,2.88,1.56,0.09,0.55,0.27,0.77,0.20,0.21,0.25,0.62,0.37,0.08,0.55,0.85,2.96,0.67,1.65,2.69,1.59,0.42,0.07,0.05,0.26,0.98,1.91,2.40,2.31,0.99,2.43,2.25,1.89,1.47,1.50,0.65,0.35,0.59,0.41,0.23,0.51,1.49,2.29,2.04,0.96,0.70,0.71,0.88,1.43,0.77,1.87,2.84,3.17,3.07,1.01,0.19,1.72,3.16,3.16,1.98,1.24,0.86,1.22,0.04,2.64,3.17,2.80,0.49,1.59,2.06,1.98,1.09,1.05,2.27,1.11,0.79,0.99,1.14,1.33,0.72,0.67,0.67,0.79,0.48,0.15,0.04,0.11,0.78,0.67,0.92,0.39,0.17,0.11,0.21,1.07,1.88,2.24,3.17,2.67,0.77,0.34,2.16,2.89,2.81,1.27,0.21,2.20,3.17,0.54,3.16,3.16,1.76,0.20,1.42,1.64,2.45,2.43,0.12,0.39,1.06,1.71,0.48,2.39,2.78,2.84,2.86,2.16,0.21,1.01,0.95,0.47,1.73,1.76,2.27,2.50,3.16,3.02,2.41,0.77,0.45,0.11,1.10,1.68,1.54,0.15,1.21,1.08,2.28,1.85,0.54,0.75,0.01,1.50,0.72,0.91,1.57,1.45,2.00,1.65,0.69,0.32,0.20,0.26,0.00,0.02,0.26,0.88,0.14,1.09,0.35,0.59,1.60,2.05,1.53,1.05,0.52,0.52,0.19,0.00,0.66,1.26,0.39,1.93,3.17,3.17,1.60,2.83,3.16,3.16,2.53,0.48,1.13,2.96,2.20,1.68,3.16,3.16,2.38,1.36,0.14,0.57,0.54,0.70,1.22,0.43,0.25,0.13,0.19,0.14,0.14,0.05,0.05,0.11,0.16,0.31,0.32,0.27,0.18,0.17,0.16,0.09,0.11,0.26,0.29,0.21,0.03,0.01,0.03,0.07,0.10,0.10,0.14,0.16,0.14,0.01,0.19,0.20,0.12,0.05,0.01,0.06,0.13,0.10,0.00,0.07,0.05,0.19,0.06,0.00,0.13,0.49,0.77,0.46,0.20,0.13,0.48,0.57,0.10,0.37,0.01,1.13,0.90,0.22,0.83,0.21,0.38,1.05,1.37,0.82,0.16,0.21,0.20,0.07,0.02,0.05,0.08,0.11,0.08,0.10,0.10,0.14,0.17,0.18,0.19,0.21,0.21,0.23,0.24,0.19,0.19,0.21,0.22,0.21,0.22,0.21,0.20,0.19,0.27,0.30,0.26,0.29,0.24,0.21,0.19,0.19,0.20,0.18,0.14,0.14,0.09,0.06,0.08,0.07,0.06,0.03,0.01,0.00,0.01,0.01,0.00,0.00,0.01,0.02,0.08,0.07,0.07,0.08,0.08,0.07,0.09,0.06,0.03,0.00,0.00,0.02,0.02,0.03,0.04,0.06,0.07,0.08,0.11,0.12,0.14,0.16,0.18,0.21,0.23,0.26,0.28,0.30,0.30,0.31,0.32,0.33,0.34,0.38,0.42,0.44,0.50,0.54,0.56,0.56,0.55,0.59,0.61,0.65,0.68,0.67,0.61,0.62,0.64,0.66,0.63,0.60,0.54,0.53,0.41,0.26,0.19,0.10,0.05,0.04,0.01,0.06,0.08,0.13,0.13,0.14,0.09,0.02,0.01,0.01,0.13,0.21,0.22,0.17,0.06,0.02,0.11,0.19,0.27,0.31,0.39,0.42,0.45,0.51,0.50,0.48,0.44,0.42,0.40,0.41,0.42,0.47,0.52,0.54,0.61,0.60,0.65,0.68,0.69,0.76,0.78,0.78,0.71,0.64,0.57,0.58,0.58,0.54,0.51,0.50,0.54,0.59,0.54,0.53,0.52,0.50,0.52,0.47,0.43,0.42,0.40,0.39,0.40,0.40,0.34,0.29,0.35,0.35,0.27,0.24,0.24,0.20,0.22,0.25,0.27,0.26,0.26,0.25,0.22,0.18,0.16,0.03,0.01,0.01,0.00,0.03,0.05,0.07,0.09,0.06,0.10,0.09,0.09,0.13,0.11,0.08,0.05,0.08,0.12,0.12,0.11,0.11,0.13,0.14,0.15,0.16,0.16,0.15,0.15,0.12,0.14,0.16,0.16,0.16,0.16,0.14,0.11,0.07,0.06,0.04,0.04,0.04,0.03,0.11,0.14,0.15,0.18,0.14,0.16,0.14,0.19,0.22,0.27,0.30,0.34,0.37,0.23,0.25,0.10,0.02,0.11,0.25,0.34,0.38,0.35,0.30,0.34,0.35,0.35,0.34,0.32,0.30,0.29,0.25,0.24,0.21,0.20,0.19,0.17,0.15,0.16,0.16,0.18,0.19,0.18,0.16,0.15,0.12,0.11,0.09,0.08,0.06,0.05,0.05,0.05,0.03,0.02,0.01,0.01,0.04,0.03,0.02,0.00,0.00,0.00,0.03,0.05,0.05,0.02,0.03,0.03,0.02,0.03,0.05,0.02,0.02,0.04,0.05,0.05,0.06,0.06,0.08,0.08,0.08,0.09,0.12,0.13,0.06,0.05,0.07,0.06,0.00,0.01,0.00,0.04,0.03,0.01,0.04,0.11,0.10,0.09,0.06,0.04,0.12,0.09,0.06,0.03,0.02,0.05,0.07,0.10,0.15,0.19,0.19,0.17,0.16,0.13,0.11,0.13,0.13,0.11,0.14,0.10,0.16,0.24,0.22,0.23,0.24,0.23,0.20,0.18,0.13,0.11,0.12,0.11,0.09,0.07,0.05,0.02,0.00,0.00,0.00,0.03,0.04,0.05,0.02,0.01,0.08,0.04,0.07,0.09,0.10,0.06,0.01,0.03,0.00,0.01,0.02,0.03,0.05,0.12,0.14,0.11,0.12,0.11,0.05,0.02,0.07,0.03,0.00,0.01,0.02,0.03,0.01,0.02,0.00,0.00,0.02,0.03,0.03,0.05,0.04,0.05,0.05,0.05,0.02,0.02,0.02,0.03,0.08,0.05,0.07,0.05,0.08,0.09,0.07,0.11,0.11,0.11,0.08,0.12,0.14,0.12,0.12,0.15,0.15,0.10,0.03,0.04,0.05,0.05,0.02,0.01,0.01,0.04,0.03,0.03,0.14,0.05,0.01,0.12,0.25,0.26,0.22,0.21,0.21,0.18,0.05,0.06,0.07,0.09,0.08,0.08,0.07,0.05,0.03,0.06,0.03,0.01,0.01,0.02,0.01,0.03,0.02,0.00,0.01,0.05,0.05,0.06,0.07,0.06,0.07,0.07,0.08,0.07,0.05,0.06,0.08,0.05,0.08,0.05,0.01,0.03,0.06,0.07,0.10,0.12,0.13,0.15,0.16,0.15,0.12,0.18,0.13,0.08,0.04,0.05,0.08,0.13,0.13,0.07,0.06,0.10,0.08,0.09,0.07,0.06,0.05,0.03,0.02,0.02,0.00,0.00,0.00,0.00,0.01,0.02,0.01,0.00,0.02,0.06,0.04,0.00,0.02,0.03,0.10,0.08,0.04,0.02,0.02,0.01,0.00,0.00,0.00,0.00,0.01,0.03,0.03,0.05,0.06,0.06,0.05,0.04,0.06,0.02,0.00,0.05,0.11,0.13,0.07,0.01,0.02,0.03,0.04,0.07,0.11,0.10,0.10,0.12,0.14,0.13,0.10,0.11,0.09,0.08,0.08,0.10,0.08,0.08,0.09,0.05,0.05,0.02,0.01,0.03,0.03,0.02,0.02,0.02,0.03,0.03,0.01,0.05,0.01,0.00,0.03,0.03,0.00,0.05,0.07,0.06,0.02,0.05,0.02,0.00,0.01,0.04,0.08,0.08,0.08,0.09,0.10,0.08,0.08,0.07,0.06,0.06,0.04,0.03,0.00,0.01,0.01,0.01,0.00,0.01,0.00,0.02,0.00,0.00,0.01,0.06,0.05,0.01,0.00,0.05,0.06,0.06,0.06,0.06,0.06,0.06,0.05,0.04,0.05,0.04,0.05,0.03,0.04,0.08,0.08,0.08,0.10,0.08,0.08,0.06,0.06,0.06,0.08,0.08,0.07,0.08,0.10,0.08,0.08,0.09,0.10,0.09,0.11,0.11,0.07,0.07,0.10,0.11,0.09,0.10,0.11,0.12,0.11,0.11,0.13,0.14,0.18,0.18,0.18,0.14,0.14,0.11,0.09,0.10,0.11,0.08,0.10,0.10,0.13,0.12,0.13,0.18,0.28,0.28,0.18,0.21,0.20,0.20,0.21,0.20,0.22,0.25,0.29,0.32,0.37,0.33,0.34,0.32,0.36,0.37,0.32,0.32,0.31,0.29,0.30,0.31,0.28,0.24,0.20,0.17,0.14,0.13,0.13,0.13,0.13,0.12,0.11,0.10,0.09,0.07,0.07,0.06,0.06,0.03,0.05,0.02,0.01,0.02,0.00,0.01,0.02,0.03,0.03,0.01,0.01,0.00,0.00,0.00,0.00,0.01,0.01,0.02,0.01,0.03,0.03,0.03,0.02,0.02,0.00,0.00,0.00,0.00,0.01,0.00,0.00,0.01,0.03,0.02,0.03,0.04,0.05,0.08,0.08,0.05,0.03,0.00,0.01,0.00,0.07,0.07,0.12,0.13,0.16,0.17,0.17,0.15,0.16,0.17,0.13,0.06,0.08,0.08,0.07,0.08,0.06,0.02,0.03,0.08,0.03,0.01,0.07,0.11,0.14,0.16,0.14,0.13,0.10,0.13,0.19,0.23,0.26,0.28,0.29,0.27,0.27,0.29,0.29,0.27,0.28,0.29,0.30,0.32,0.32,0.28,0.27,0.25,0.27,0.26,0.24,0.20,0.13,0.10,0.11,0.12,0.07,0.00,0.05,0.05,0.06,0.06,0.08,0.13,0.19,0.22,0.21,0.23,0.33,0.46,0.48,0.33,0.33,0.33,0.32,0.35,0.34,0.35,0.31,0.31,0.30,0.24,0.18,0.17,0.16,0.13,0.14,0.15,0.15,0.08,0.03,0.02,0.01,0.02,0.08,0.02,0.01,0.06,0.03,0.01,0.01,0.06,0.02,0.01,0.12,0.16,0.21,0.21,0.14,0.20,0.16,0.17,0.16,0.18,0.21,0.13,0.02,0.11,0.21,0.20,0.00,0.13,0.24,0.17,0.19,0.21,0.07,0.16,0.21,0.11,0.08,0.03,0.01,0.03,0.14,0.18,0.16,0.09,0.19,0.18,0.16,0.26,0.23,0.15,0.20,0.33,0.29,0.19,0.09,0.07,0.06,0.11,0.05,0.12,0.08,0.03,0.04,0.03,0.03,0.05,0.06,0.02,0.02,0.08,0.11,0.03,0.02,0.03,0.02,0.07,0.17,0.23,0.11,0.09,0.10,0.13,0.11,0.02,0.06,0.05,0.04,0.07,0.13,0.11,0.08,0.14,0.26,0.22,0.18,0.10,0.12,0.08,0.06,0.14,0.17,0.17,0.05,0.17,0.15,0.13,0.11,0.03,0.01,0.03,0.10,0.27,0.31,0.23,0.19,0.13,0.22,0.41,0.42,0.27,0.16,0.24,0.26,0.26,0.15,0.08,0.09,0.05,0.02,0.05,0.02,0.03,0.03,0.00,0.03,0.04,0.03,0.02,0.05,0.10,0.16,0.19,0.14,0.14,0.06,0.07,0.11,0.16,0.12,0.15,0.22,0.13,0.06,0.15,0.20,0.13,0.11,0.17,0.24,0.35,0.50,0.48,0.56,0.68,0.65,0.60,0.63,0.67,0.72,0.73,0.71,0.64,0.69,0.72,0.54,0.41,0.37,0.34,0.31,0.16,0.03,0.02,0.07,0.19,0.24,0.30,0.37,0.43,0.45,0.50,0.52,0.52,0.46,0.43,0.42,0.41,0.36,0.29,0.23,0.14,0.10,0.01,0.32,0.45,0.45,0.45,0.45,0.52,0.66,0.66,0.60,0.49,0.40,0.36,0.42,0.53,0.65,0.65,0.60,0.66,0.75,0.74,0.59,0.42,0.40,0.31,0.19,0.13,0.05,0.23,0.31,0.42,0.55,0.67,0.83,0.97,1.25,1.50,1.71,1.82,2.01,2.18,2.31,2.41,2.41,2.30,2.11,2.00,1.88,1.66,1.56,1.47,1.36,1.28,1.20,0.98,0.61,0.40,0.57,0.93,1.47,1.89,2.03,2.21,2.45,2.59,2.74,2.74,2.65,2.59,2.44,2.17,1.86,1.53,1.23,1.02,0.79,0.66,0.54,0.34,0.10,0.18,0.43,0.66,0.90,0.97,0.97,0.93,0.83,0.74,0.61,0.43,0.42,0.60,0.86,0.98,1.02,1.02,1.06,0.98,0.96,1.25,1.47,1.31,0.99,0.80,0.55,0.32,0.14,0.19,0.27,0.36,0.51,0.71,0.89,1.12,1.25,1.26,1.17,1.00,0.91,0.87,0.84,0.83,0.67,0.57,0.49,0.44,0.29,0.32,0.46,0.67,0.94,1.20,1.26,1.33,1.33,1.34,1.31,1.25,1.23,1.16,1.16,1.11,0.98,0.85,0.78,0.66,0.55,0.41,0.32,0.22,0.25,0.36,0.58,0.80,0.97,1.04,1.02,1.02,0.99,0.96,0.91,0.85,0.72,0.60,0.48,0.45,0.41,0.34,0.36,0.46,0.50,0.44,0.34,0.25,0.14,0.02,0.14,0.21,0.22,0.24,0.29,0.35,0.33,0.30,0.30,0.30,0.30,0.29,0.31,0.30,0.29,0.26,0.23,0.20,0.18,0.14,0.12,0.15,0.16,0.14,0.14,0.16,0.14,0.12,0.08,0.10,0.11,0.09,0.07,0.06,0.02,0.04,0.09,0.13,0.15,0.20,0.27,0.31,0.33,0.35,0.40,0.38,0.34,0.32,0.36,0.39,0.37,0.37,0.39,0.36,0.33,0.35,0.35,0.34,0.30,0.28,0.28,0.28,0.27,0.28,0.29,0.27,0.25,0.19,0.15,0.12,0.10,0.03,0.01,0.05,0.10,0.16,0.18,0.17,0.19,0.20,0.17,0.13,0.10,0.05,0.00,0.02,0.00,0.02,0.04,0.11,0.10,0.10,0.13,0.16,0.21,0.20,0.21,0.20,0.21,0.18,0.18,0.17,0.17,0.14,0.11,0.09,0.02,0.03,0.11,0.14,0.14,0.19,0.22,0.18,0.14,0.14,0.13,0.16,0.20,0.21,0.21,0.27,0.23,0.07,0.07,0.16,0.20,0.15,0.11,0.13,0.20,0.22,0.21,0.22,0.27,0.34,0.38,0.42,0.45,0.46,0.45,0.48,0.50,0.52,0.48,0.41,0.34,0.35,0.34,0.30,0.21,0.13,0.06,0.03,0.05,0.14,0.21,0.26,0.28,0.31,0.29,0.27,0.31,0.34,0.41,0.44,0.41,0.41,0.44,0.54,0.54,0.51,0.52,0.51,0.43,0.48,0.53,0.55,0.59,0.62,0.71,0.80,0.88,0.89,0.88,0.91,0.87,0.96,1.00,1.01,0.94,0.82,0.64,0.52,0.39,0.30,0.22,0.18,0.15,0.14,0.13,0.18,0.22,0.25,0.23,0.21,0.21,0.26,0.39,0.36,0.33,0.35,0.35,0.31,0.37,0.32,0.24,0.24,0.31,0.32,0.29,0.19,0.19,0.20,0.21,0.19,0.18,0.16,0.15,0.13,0.10,0.08,0.05,0.03,0.02,0.03,0.00,0.02,0.05,0.10,0.09,0.13,0.17,0.19,0.17,0.18,0.22,0.26,0.30,0.37,0.42,0.45,0.46,0.50,0.53,0.57,0.57,0.56,0.54,0.53,0.49,0.44,0.40,0.36,0.30,0.27,0.25,0.24,0.21,0.21,0.21,0.26,0.37,0.35,0.31,0.27,0.29,0.29,0.30,0.32,0.34,0.33,0.33,0.34,0.36,0.38,0.38,0.35,0.34,0.35,0.35,0.38,0.37,0.35,0.36,0.37,0.34,0.33,0.32,0.33,0.33,0.31,0.29,0.27,0.27,0.30,0.31,0.24,0.24,0.22,0.19,0.19,0.16,0.14,0.16,0.15,0.13,0.11,0.09,0.08,0.08,0.06,0.05,0.03,0.02,0.02,0.00,0.00,0.01,0.02,0.02,0.00,0.00,0.04,0.03,0.06,0.13,0.16,0.14,0.20,0.22,0.25,0.26,0.29,0.28,0.24,0.19,0.18,0.18,0.19,0.18,0.18,0.23,0.22,0.22,0.25,0.23,0.23,0.25,0.23,0.24,0.24,0.23,0.19,0.17,0.16,0.16,0.12,0.06,0.05,0.01,0.01,0.05,0.06
0.24,0.22,0.19,0.13,0.14,0.15,0.12,0.10,0.10,0.10,0.08,0.07,0.06,0.04,0.04,0.04,0.03,0.01,0.01,0.01,0.00,0.01,0.00,0.01,0.01,0.01,0.01,0.01,0.04,0.00,0.04,0.03,0.02,0.01,0.02,0.02,0.02,0.01,0.00,0.01,0.01,0.02,0.01,0.00,0.01,0.01,0.02,0.01,0.01,0.04,0.03,0.03,0.03,0.05,0.05,0.06,0.03,0.02,0.03,0.03,0.02,0.03,0.02,0.01,0.00,0.01,0.03,0.08,0.08,0.04,0.04,0.06,0.05,0.06,0.07,0.06,0.08,0.12,0.11,0.09,0.08,0.11,0.14,0.12,0.13,0.16,0.14,0.09,0.05,0.06,0.08,0.08,0.07,0.04,0.04,0.05,0.04,0.03,0.05,0.03,0.03,0.03,0.02,0.02,0.02,0.00,0.01,0.02,0.06,0.10,0.08,0.11,0.13,0.14,0.12,0.11,0.10,0.11,0.14,0.11,0.10,0.09,0.08,0.08,0.09,0.08,0.05,0.03,0.03,0.04,0.06,0.03,0.01,0.00,0.00,0.00,0.00,0.02,0.03,0.04,0.05,0.05,0.06,0.07,0.07,0.08,0.08,0.06,0.05,0.07,0.08,0.10,0.11,0.10,0.11,0.11,0.13,0.14,0.15,0.18,0.17,0.16,0.17,0.16,0.16,0.14,0.15,0.13,0.11,0.18,0.15,0.11,0.08,0.08,0.10,0.10,0.09,0.08,0.10,0.14,0.12,0.10,0.11,0.12,0.12,0.13,0.12,0.05,0.02,0.02,0.02,0.02,0.01,0.00,0.02,0.00,0.00,0.00,0.01,0.04,0.06,0.03,0.08,0.10,0.13,0.11,0.11,0.08,0.05,0.03,0.05,0.06,0.08,0.08,0.05,0.01,0.08,0.07,0.02,0.00,0.00,0.00,0.01,0.00,0.03,0.03,0.06,0.06,0.07,0.10,0.06,0.05,0.01,0.00,0.01,0.01,0.00,0.00,0.00,0.01,0.00,0.00,0.02,0.05,0.06,0.06,0.08,0.11,0.07,0.02,0.01,0.01,0.04,0.08,0.11,0.10,0.10,0.08,0.10,0.06,0.06,0.09,0.08,0.07,0.06,0.06,0.10,0.09,0.04,0.01,0.00,0.01,0.01,0.01,0.02,0.04,0.02,0.05,0.07,0.08,0.08,0.08,0.07,0.06,0.03,0.01,0.02,0.06,0.10,0.08,0.06,0.05,0.04,0.05,0.08,0.05,0.03,0.05,0.06,0.07,0.04,0.00,0.01,0.02,0.00,0.00,0.02,0.02,0.02,0.02,0.03,0.00,0.00,0.03,0.00,0.00,0.04,0.05,0.05,0.05,0.04,0.05,0.09,0.09,0.09,0.09,0.11,0.14,0.14,0.16,0.17,0.15,0.15,0.15,0.14,0.12,0.10,0.10,0.14,0.14,0.11,0.13,0.11,0.08,0.08,0.06,0.06,0.07,0.07,0.11,0.07,0.03,0.00,0.00,0.00,0.00,0.00,0.00,0.03,0.04,0.03,0.03,0.05,0.05,0.04,0.05,0.07,0.05,0.06,0.08,0.06,0.05,0.04,0.08,0.12,0.09,0.03,0.01,0.00,0.02,0.00,0.00,0.02,0.07,0.05,0.04,0.07,0.07,0.05,0.05,0.02,0.02,0.03,0.01,0.00,0.02,0.00,0.02,0.02,0.03,0.03,0.01,0.02,0.02,0.02,0.02,0.00,0.00,0.00,0.04,0.04,0.03,0.05,0.07,0.05,0.05,0.04,0.04,0.03,0.03,0.03,0.01,0.02,0.02,0.00,0.04,0.06,0.03,0.00,0.02,0.03,0.02,0.03,0.01,0.01,0.01,0.01,0.00,0.00,0.01,0.02,0.03,0.02,0.04,0.03,0.02,0.00,0.00,0.01,0.05,0.03,0.02,0.05,0.08,0.06,0.02,0.03,0.04,0.02,0.02,0.02,0.05,0.06,0.08,0.13,0.11,0.07,0.04,0.03,0.08,0.05,0.04,0.00,0.01,0.00,0.00,0.02,0.02,0.03,0.04,0.06,0.06,0.06,0.06,0.02,0.05,0.11,0.14,0.15,0.14,0.12,0.10,0.13,0.14,0.12,0.11,0.11,0.10,0.10,0.08,0.08,0.08,0.09,0.08,0.03,0.02,0.02,0.06,0.06,0.06,0.03,0.02,0.00,0.02,0.01,0.00,0.00,0.00,0.01,0.00,0.00,0.02,0.00,0.02,0.03,0.02,0.02,0.02,0.01,0.00,0.01,0.01,0.02,0.03,0.05,0.05,0.02,0.01,0.03,0.05,0.05,0.00,0.03,0.07,0.09,0.08,0.09,0.03,0.11,0.22,0.15,0.11,0.09,0.04,0.00,0.04,0.06,0.10,0.01,0.04,0.02,0.00,0.06,0.10,0.15,0.15,0.11,0.11,0.03,0.01,0.01,0.05,0.13,0.19,0.11,0.03,0.07,0.01,0.22,0.37,0.45,0.35,0.24,0.19,0.56,1.12,1.36,1.45,1.71,1.48,1.57,2.35,2.26,1.57,0.96,0.24,0.51,0.61,0.75,0.98,0.72,0.34,1.05,1.79,2.44,2.14,2.21,1.89,0.61,0.06,0.41,0.30,0.51,0.92,1.12,0.89,0.58,0.31,1.17,1.20,1.23,1.65,1.58,1.68,2.14,1.86,0.93,0.37,0.06,0.66,1.25,1.96,1.79,0.06,1.33,1.34,1.35,0.87,0.64,0.90,2.52,3.00,1.07,2.09,3.17,2.13,1.89,1.38,0.80,1.71,1.01,2.13,0.36,2.98,3.17,3.17,0.08,1.35,1.01,0.74,1.37,0.24,1.33,0.02,0.47,0.51,1.69,0.65,0.83,2.21,2.60,2.84,2.55,2.16,0.51,1.50,3.17,3.17,3.17,3.17,3.17,0.58,3.16,3.16,3.16,3.16,3.16,3.16,1.86,0.38,1.02,2.64,3.00,1.39,0.69,1.83,1.34,0.81,1.80,1.64,0.12,1.06,0.77,0.13,0.97,1.61,1.12,0.53,2.12,2.75,1.34,0.33,0.96,0.85,1.40,0.46,2.28,3.07,1.11,0.28,1.38,2.32,1.87,1.11,0.95,1.04,1.05,0.93,0.86,0.43,0.77,1.54,1.17,0.74,1.08,1.66,1.65,0.79,0.62,0.25,0.14,0.78,0.54,0.46,0.22,0.31,0.20,0.19,0.16,0.19,0.55,1.77,2.01,0.59,0.09,0.45,0.46,1.66,3.16,2.88,0.78,0.69,0.80,1.20,0.83,0.50,0.81,1.64,0.61,0.02,0.84,1.26,0.65,0.34,0.26,1.50,1.46,1.17,0.40,0.03,1.11,1.09,0.37,1.41,1.67,0.04,0.79,0.75,1.36,1.12,0.69,1.67,0.62,0.41,0.11,1.61,1.42,0.37,0.30,0.38,0.19,0.56,1.45,0.18,3.08,2.77,2.08,0.82,0.11,0.98,0.98,0.11,0.64,0.30,0.02,0.06,0.82,0.43,0.78,0.58,0.45,0.48,0.24,1.28,1.22,0.06,0.16,1.08,0.15,0.02,0.07,0.46,1.58,1.75,1.03,2.67,2.45,0.52,0.21,0.85,0.70,0.68,0.38,0.44,0.62,0.86,0.98,0.62,0.14,0.85,1.33,0.30,0.05,0.29,0.53,0.07,0.43,1.03,1.52,1.49,0.57,1.09,2.57,3.17,2.58,1.26,2.66,1.08,0.34,0.49,0.46,2.09,3.17,2.70,0.73,0.96,1.73,0.29,1.08,0.01,2.29,1.82,1.24,0.76,0.02,0.82,1.19,1.71,1.23,0.67,0.93,1.24,0.97,0.93,1.24,0.69,0.66,0.72,0.79,1.33,1.28,0.47,0.54,0.25,0.08,0.05,0.17,0.14,0.07,0.11,0.32,0.50,0.85,0.80,0.63,0.58,1.06,1.12,0.98,0.24,2.28,2.75,1.41,0.96,0.71,1.18,1.53,1.56,1.53,0.33,1.77,1.08,0.44,1.68,2.17,1.97,1.32,1.25,2.53,2.19,0.19,2.17,2.98,2.51,1.63,0.68,0.09,0.59,1.74,0.01,3.16,3.16,1.67,3.17,3.17,2.34,0.51,1.29,3.07,3.16,2.30,1.81,1.85,1.18,0.24,0.82,1.23,0.96,1.05,1.23,1.11,0.50,0.45,1.71,0.53,0.38,0.40,0.31,0.17,0.05,0.01,0.22,0.43,0.05,0.59,1.58,2.18,1.89,0.27,1.52,3.15,3.17,3.17,0.12,1.77,1.76,0.01,0.74,0.70,0.54,1.57,1.35,1.46,0.65,1.23,2.49,3.17,3.17,0.87,3.16,3.16,0.68,0.22,0.27,0.48,1.12,1.42,0.92,0.43,0.77,0.20,0.88,1.04,0.80,0.13,0.30,0.50,0.45,0.28,0.33,0.61,0.76,0.22,0.19,0.50,0.98,1.42,0.50,0.00,0.56,1.19,2.17,3.17,3.17,1.33,1.99,2.91,3.02,1.88,1.66,0.95,0.60,0.85,0.86,0.21,1.27,1.99,1.97,0.94,0.22,0.16,0.10,0.92,1.18,0.47,0.28,0.06,0.43,0.38,0.17,2.46,3.17,2.56,2.66,2.43,0.69,2.45,1.53,0.23,1.12,1.96,1.12,0.67,2.13,0.50,0.26,0.37,0.78,1.18,1.50,0.48,1.50,2.03,2.28,2.83,2.12,0.72,0.60,0.32,0.15,0.64,0.30,0.35,0.30,0.19,0.15,0.06,0.00,0.08,0.02,0.01,0.07,0.05,0.21,0.42,0.11,0.52,1.09,1.07,0.81,0.22,0.30,0.20,0.72,0.27,0.14,0.30,0.52,0.03,0.61,0.56,0.60,1.50,2.27,3.17,3.17,3.15,0.23,2.58,2.91,2.45,2.53,2.33,1.16,0.34,0.63,2.29,2.89,2.90,1.65,0.08,0.47,1.39,1.55,1.60,1.40,1.09,0.70,0.45,0.45,0.37,0.00,0.10,0.02,0.00,0.14,0.27,0.45,0.19,0.13,0.30,0.42,0.16,0.10,0.04,0.13,0.21,0.70,0.70,0.24,0.18,0.07,0.04,0.00,0.21,0.08,0.01,0.15,0.27,0.37,0.37,0.32,0.48,0.53,0.23,0.07,0.08,0.23,0.34,0.29,0.26,0.34,0.50,0.70,0.60,0.12,0.31,0.03,0.09,0.11,0.16,0.17,0.16,0.15,0.16,0.18,0.10,0.05,0.02,0.03,0.11,0.15,0.10,0.15,0.14,0.10,0.16,0.17,0.22,0.26,0.24,0.28,0.26,0.26,0.38,0.34,0.21,0.32,0.37,0.18,0.15,0.14,0.22,0.25,0.10,0.04,0.01,0.12,0.25,0.04,0.01,0.22,0.35,0.36,0.28,0.24,0.18,0.15,0.08,0.05,0.02,0.00,0.02,0.05,0.08,0.10,0.14,0.16,0.21,0.32,0.34,0.25,0.23,0.34,0.51,0.34,0.11,0.06,0.10,0.09,0.03,0.14,0.19,0.20,0.18,0.17,0.15,0.14,0.11,0.11,0.08,0.10,0.11,0.10,0.11,0.03,0.01,0.04,0.12,0.05,0.06,0.15,0.16,0.13,0.11,0.13,0.12,0.13,0.10,0.10,0.14,0.12,0.03,0.11,0.18,0.05,0.11,0.18,0.20,0.12,0.20,0.28,0.38,0.25,0.08,0.13,0.27,0.30,0.42,0.38,0.33,0.18,0.10,0.18,0.31,0.11,0.26,0.32,0.26,0.25,0.12,0.03,0.13,0.19,0.19,0.17,0.09,0.00,0.17,0.18,0.27,0.34,0.00,0.12,0.05,0.51,0.48,0.26,0.16,0.27,0.40,0.40,0.34,0.40,0.46,0.46,0.48,0.47,0.46,0.45,0.48,0.47,0.43,0.43,0.40,0.38,0.42,0.40,0.37,0.34,0.36,0.33,0.26,0.18,0.10,0.08,0.10,0.06,0.03,0.04,0.01,0.04,0.00,0.08,0.12,0.12,0.13,0.15,0.14,0.18,0.20,0.22,0.28,0.32,0.33,0.35,0.34,0.33,0.32,0.32,0.35,0.38,0.38,0.42,0.40,0.38,0.39,0.37,0.35,0.32,0.32,0.30,0.31,0.33,0.36,0.33,0.33,0.31,0.31,0.27,0.26,0.25,0.21,0.18,0.15,0.10,0.05,0.02,0.00,0.02,0.02,0.02,0.01,0.00,0.02,0.03,0.02,0.01,0.02,0.02,0.01,0.00,0.01,0.03,0.06,0.07,0.11,0.14,0.08,0.13,0.16,0.19,0.23,0.30,0.32,0.28,0.33,0.33,0.37,0.40,0.44,0.46,0.43,0.46,0.46,0.42,0.37,0.34,0.32,0.31,0.26,0.21,0.16,0.13,0.10,0.07,0.04,0.00,0.02,0.03,0.05,0.05,0.06,0.05,0.07,0.13,0.14,0.15,0.18,0.23,0.22,0.19,0.19,0.24,0.26,0.30,0.31,0.32,0.39,0.26,0.23,0.26,0.32,0.33,0.29,0.27,0.23,0.28,0.33,0.34,0.21,0.10,0.12,0.04,0.16,0.10,0.07,0.11,0.08,0.32,0.38,0.37,0.31,0.29,0.34,0.30,0.23,0.22,0.14,0.05,0.05,0.01,0.05,0.10,0.15,0.19,0.26,0.28,0.25,0.27,0.29,0.32,0.33,0.33,0.34,0.33,0.30,0.27,0.23,0.22,0.20,0.21,0.19,0.19,0.19,0.17,0.15,0.16,0.16,0.27,0.21,0.19,0.22,0.26,0.32,0.33,0.24,0.12,0.10,0.06,0.01,0.04,0.03,0.06,0.05,0.09,0.08,0.09,0.11,0.14,0.11,0.09,0.12,0.14,0.19,0.14,0.06,0.07,0.10,0.16,0.23,0.18,0.14,0.06,0.14,0.10,0.17,0.34,0.34,0.36,0.32,0.32,0.33,0.30,0.34,0.38,0.38,0.33,0.32,0.30,0.29,0.32,0.29,0.31,0.28,0.30,0.28,0.21,0.29,0.32,0.31,0.23,0.24,0.29,0.14,0.14,0.05,0.08,0.01,0.04,0.00,0.03,0.03,0.06,0.08,0.02,0.02,0.01,0.04,0.00,0.03,0.08,0.12,0.13,0.14,0.16,0.16,0.18,0.13,0.10,0.07,0.04,0.07,0.08,0.08,0.04,0.03,0.04,0.02,0.03,0.14,0.29,0.38,0.36,0.36,0.36,0.42,0.47,0.51,0.48,0.46,0.38,0.34,0.33,0.31,0.27,0.24,0.23,0.25,0.20,0.14,0.12,0.10,0.05,0.01,0.00,0.01,0.00,0.00,0.02,0.03,0.02,0.05,0.05,0.02,0.01,0.02,0.08,0.12,0.15,0.17,0.15,0.13,0.09,0.09,0.11,0.08,0.13,0.30,0.45,0.53,0.53,0.56,0.58,0.57,0.58,0.56,0.50,0.47,0.44,0.38,0.31,0.22,0.19,0.14,0.11,0.02,0.00,0.00,0.05,0.08,0.05,0.04,0.00,0.06,0.00,0.06,0.09,0.03,0.05,0.02,0.01,0.06,0.14,0.19,0.10,0.12,0.29,0.37,0.34,0.32,0.37,0.43,0.43,0.43,0.42,0.43,0.40,0.35,0.32,0.31,0.27,0.22,0.18,0.13,0.10,0.06,0.03,0.00,0.05,0.07,0.08,0.09,0.09,0.10,0.10,0.12,0.12,0.11,0.09,0.12,0.14,0.14,0.16,0.14,0.13,0.14,0.18,0.16,0.16,0.17,0.19,0.18,0.19,0.22,0.25,0.25,0.26,0.27,0.24,0.19,0.21,0.19,0.14,0.11,0.02,0.08,0.08,0.03,0.06,0.14,0.07,0.06,0.03,0.03,0.04,0.00,0.02,0.03,0.10,0.13,0.16,0.26,0.27,0.19,0.08,0.08,0.14,0.15,0.18,0.17,0.13,0.11,0.08,0.04,0.03,0.03,0.01,0.01,0.03,0.04,0.06,0.07,0.04,0.05,0.08,0.11,0.09,0.10,0.13,0.19,0.16,0.14,0.17,0.21,0.20,0.22,0.22,0.21,0.23,0.20,0.12,0.21,0.25,0.25,0.26,0.26,0.27,0.26,0.27,0.27,0.27,0.24,0.22,0.24,0.23,0.22,0.16,0.16,0.18,0.18,0.14,0.10,0.05,0.06,0.04,0.00,0.08,0.12,0.11,0.00,0.03,0.03,0.01,0.05,0.05,0.03,0.05,0.06,0.06,0.06,0.07,0.06,0.07,0.08,0.10,0.12,0.08,0.08,0.08,0.08,0.09,0.10,0.13,0.18,0.18,0.16,0.15,0.10,0.06,0.07,0.13,0.16,0.16,0.10,0.06,0.03,0.00,0.03,0.06,0.03,0.14,0.20,0.13,0.10,0.10,0.08,0.05,0.04,0.03,0.01,0.04,0.04,0.01,0.06,0.06,0.05,0.07,0.08,0.10,0.15,0.11,0.09,0.08,0.10,0.10,0.12,0.11,0.11,0.08,0.08,0.08,0.06,0.05,0.03,0.01,0.01,0.05,0.03,0.03,0.12,0.17,0.12,0.11,0.11,0.11,0.11,0.06,0.06,0.05,0.05,0.10,0.10,0.08,0.07,0.09,0.10,0.06,0.06,0.07,0.05,0.05,0.06,0.04,0.05,0.06,0.09,0.09,0.07,0.07,0.07,0.05,0.04,0.12,0.15,0.06,0.02,0.05,0.03,0.06,0.06,0.05,0.10,0.13,0.06,0.00,0.01,0.04,0.05,0.04,0.04,0.03,0.05,0.03,0.02,0.01,0.00,0.02,0.03,0.04,0.08,0.06,0.06,0.04,0.01,0.00,0.09,0.13,0.07,0.02,0.04,0.02,0.02,0.00,0.01,0.03,0.06,0.02,0.01,0.02,0.00,0.03,0.04,0.04,0.05,0.10,0.10,0.10,0.09,0.07,0.07,0.08,0.03,0.01,0.05,0.06,0.07,0.05,0.05,0.05,0.04,0.05,0.03,0.03,0.02,0.01,0.01,0.01,0.02,0.02,0.01,0.01,0.02,0.03,0.03,0.01,0.01,0.00,0.00,0.02,0.05,0.03,0.02,0.02,0.03,0.00,0.02,0.00,0.03,0.09,0.09,0.05,0.04,0.05,0.02,0.07,0.09,0.08,0.08,0.08,0.10,0.10,0.08,0.06,0.08,0.07,0.02,0.08,0.11,0.10,0.09,0.09,0.07,0.04,0.05,0.06,0.08,0.09,0.11,0.10,0.11,0.06,0.06,0.08,0.05,0.06,0.05,0.07,0.06,0.08,0.07,0.08,0.07,0.08,0.08,0.05,0.05,0.04,0.03,0.03,0.03,0.03,0.03,0.03,0.00,0.03,0.05,0.06,0.03,0.00,0.02,0.03,0.02,0.01,0.08,0.09,0.06,0.05,0.06,0.05,0.02,0.03,0.03,0.04,0.05,0.05,0.05,0.05,0.06,0.06,0.06,0.09,0.09,0.08,0.10,0.12,0.13,0.11,0.04,0.04,0.07,0.08,0.07,0.06,0.02,0.08,0.08,0.13,0.12,0.06,0.09,0.21,0.11,0.07,0.08,0.07,0.07,0.08,0.06,0.06,0.04,0.05,0.06,0.04,0.04,0.05,0.05,0.04,0.04,0.01,0.03,0.10,0.16,0.14,0.06,0.05,0.07,0.04,0.07,0.06,0.06,0.09,0.07,0.07,0.06,0.07,0.07,0.04,0.06,0.06,0.09,0.10,0.05,0.04,0.04,0.05,0.03,0.04,0.04,0.05,0.05,0.04,0.05,0.04,0.05,0.03,0.00,0.02,0.03,0.02,0.00,0.12,0.21,0.18,0.12,0.10,0.06,0.07,0.07,0.05,0.05,0.03,0.03,0.01,0.00,0.00,0.02,0.02,0.01,0.03,0.03,0.02,0.02,0.02,0.02,0.03,0.03,0.00,0.00,0.01,0.04,0.02,0.02,0.03,0.07,0.06,0.05,0.07,0.04,0.03,0.04,0.05,0.04,0.04,0.04,0.05,0.02,0.00,0.01,0.00,0.01,0.04,0.02,0.02,0.03,0.02,0.02,0.02,0.01,0.03,0.05,0.07,0.03,0.02,0.00,0.02,0.00,0.00,0.02,0.00,0.09,0.08,0.03,0.04,0.00,0.10,0.15,0.09,0.03,0.00,0.00,0.02,0.03,0.04,0.03,0.00,0.02,0.03,0.03,0.03,0.04,0.02,0.00,0.00,0.02,0.00,0.02,0.02,0.03,0.01,0.02,0.02,0.01,0.00,0.03,0.05,0.08,0.10,0.05,0.00,0.04,0.03,0.05,0.04,0.03,0.02,0.03,0.02,0.03,0.03,0.02,0.02,0.06,0.05,0.03,0.03,0.01,0.00,0.00,0.01,0.04,0.06,0.03,0.02,0.02,0.11,0.10,0.08,0.06,0.03,0.02,0.03,0.05,0.04,0.04,0.05,0.05,0.06,0.06,0.07,0.06,0.04,0.03,0.05,0.05,0.06,0.07,0.08,0.07,0.09,0.12,0.12,0.06,0.02,0.00,0.05,0.21,0.13,0.08,0.05,0.03,0.02,0.10,0.13,0.13,0.06,0.05,0.05,0.03,0.03,0.03,0.02,0.04,0.03,0.00,0.05,0.07,0.05,0.05,0.02,0.01,0.03,0.05,0.03,0.00,0.02,0.03,0.03,0.04,0.02,0.02,0.01,0.00,0.00,0.01,0.00,0.01,0.01,0.03,0.02,0.01,0.00,0.03,0.04,0.03,0.00,0.00,0.01,0.01,0.01,0.01,0.00,0.02,0.01,0.01,0.03,0.03,0.02,0.02,0.01,0.00,0.03,0.01,0.04,0.03,0.00,0.05,0.03,0.04,0.05,0.01,0.01,0.00,0.02,0.05,0.03,0.00,0.02,0.00,0.02,0.02,0.02,0.00,0.02,0.01,0.01,0.02,0.06,0.08,0.01,0.00,0.02,0.06,0.00,0.01,0.06,0.02,0.01,0.02,0.00,0.02,0.06,0.02,0.03,0.03,0.01,0.03,0.03,0.00,0.00,0.01,0.02,0.04,0.05,0.03,0.02,0.05,0.05,0.00,0.02,0.03,0.03,0.03,0.03,0.03,0.03,0.03,0.06,0.01,0.00,0.00,0.00,0.00,0.01,0.05,0.03,0.01,0.02,0.03,0.02,0.00,0.02,0.02,0.06,0.05,0.08,0.02,0.01,0.00,0.02,0.00,0.02,0.03,0.03,0.03,0.02,0.02,0.03,0.03,0.02,0.02,0.04,0.02,0.02,0.01,0.01,0.00,0.01,0.02,0.03,0.02,0.00,0.00,0.02,0.05,0.03,0.02,0.05,0.03,0.05,0.05,0.03,0.03,0.00,0.02,0.00,0.03,0.03,0.04,0.06,0.02,0.04,0.06,0.06,0.01,0.13,0.13,0.07,0.06,0.03,0.03,0.01,0.02,0.04,0.06,0.06,0.02,0.04,0.06,0.03,0.06,0.04,0.03,0.03,0.05,0.03,0.02,0.04,0.08,0.04,0.00,0.01,0.03,0.05,0.01,0.01,0.00,0.03,0.08,0.05,0.04,0.06,0.02,0.00,0.06,0.06,0.05,0.02,0.06,0.03,0.05,0.03,0.01,0.00,0.00,0.06,0.05,0.00,0.00,0.02,0.03,0.05,0.12,0.02,0.05,0.05,0.04,0.04,0.02,0.17,0.14,0.06,0.06,0.05,0.03,0.03,0.01,0.01,0.03,0.00,0.00,0.02,0.02,0.02,0.02,0.04,0.07,0.03,0.01,0.03,0.04,0.00,0.00,0.02,0.04,0.07,0.06,0.03,0.02,0.01,0.01,0.03,0.03,0.03,0.02,0.00,0.04,0.05,0.05,0.03,0.00,0.01,0.00,0.03,0.00,0.02,0.00,0.00,0.00,0.01,0.01,0.00,0.01,0.01,0.01,0.00,0.00,0.00,0.02,0.00,0.01,0.01,0.02,0.02,0.02,0.02,0.02,0.04,0.03,0.03,0.04,0.03,0.03,0.01,0.04,0.05,0.00,0.03,0.03,0.00,0.03,0.04,0.02,0.02,0.02,0.03,0.02,0.01,0.04,0.01,0.00,0.00,0.06,0.05,0.02,0.01,0.02,0.03,0.00,0.02,0.03,0.00,0.00,0.02,0.00,0.03,0.06,0.00,0.02,0.02,0.01,0.00,0.03,0.03,0.05,0.00,0.02,0.02,0.02,0.02,0.00,0.03,0.02,0.02,0.02,0.05,0.03,0.02,0.01,0.00,0.02,0.00,0.03,0.04,0.04,0.01,0.06,0.09,0.12,0.11,0.09,0.06,0.00,0.03,0.02,0.01,0.00,0.06,0.06,0.08,0.05,0.05,0.06,0.00,0.01,0.02,0.02,0.00,0.01,0.01,0.01,0.01,0.03,0.00,0.02,0.01,0.03,0.02,0.02,0.03,0.00,0.05,0.02,0.01,0.01,0.00,0.02,0.02,0.00,0.03,0.05,0.02,0.02,0.01,0.00,0.00,0.00,0.02,0.05,0.03,0.00,0.00,0.01,0.03,0.05,0.03,0.02,0.02,0.02,0.05,0.04,0.05,0.02,0.01,0.03,0.08,0.05,0.03,0.03,0.06,0.03,0.04,0.03,0.01,0.00,0.00,0.01,0.02,0.03,0.03,0.05,0.05,0.00,0.00,0.00,0.02,0.01,0.02,0.02,0.00,0.00,0.00,0.00,0.00,0.00,0.00,0.01,0.00,0.00,0.00,0.02,0.01,0.05,0.06,0.02,0.01,0.05,0.05,0.04,0.01,0.01,0.02,0.06,0.01,0.03,0.03,0.03,0.02,0.03,0.03,0.00,0.01,0.02,0.02,0.02,0.03,0.02,0.00,0.02,0.03,0.02,0.01,0.00,0.01,0.00,0.02,0.00,0.05,0.08,0.01,0.01,0.03,0.01,0.00,0.06,0.07,0.06,0.00,0.06,0.02,0.01,0.03,0.05,0.05,0.05,0.05,0.05,0.05,0.04,0.03
0.00,0.03,0.08,0.07,0.07,0.02,0.00,0.00,0.00,0.01,0.00,0.00,0.00,0.04,0.06,0.04,0.02,0.00,0.02,0.03,0.07,0.10,0.02,0.03,0.04,0.03,0.02,0.01,0.02,0.03,0.02,0.01,0.01,0.01,0.01,0.01,0.01,0.01,0.01,0.03,0.01,0.01,0.00,0.00,0.03,0.04,0.04,0.04,0.04,0.00,0.03,0.02,0.04,0.11,0.11,0.04,0.03,0.05,0.08,0.08,0.11,0.08,0.04,0.02,0.02,0.03,0.03,0.04,0.04,0.02,0.03,0.02,0.03,0.04,0.03,0.02,0.00,0.02,0.03,0.06,0.01,0.00,0.03,0.05,0.02,0.03,0.02,0.04,0.06,0.05,0.06,0.06,0.06,0.05,0.06,0.04,0.03,0.03,0.03,0.02,0.03,0.04,0.05,0.03,0.03,0.02,0.02,0.06,0.02,0.00,0.02,0.03,0.03,0.03,0.01,0.04,0.05,0.02,0.06,0.01,0.02,0.03,0.01,0.03,0.01,0.01,0.00,0.02,0.04,0.03,0.04,0.01,0.02,0.05,0.02,0.01,0.00,0.00,0.00,0.01,0.01,0.00,0.04,0.03,0.01,0.00,0.00,0.00,0.05,0.00,0.00,0.00,0.02,0.03,0.00,0.02,0.06,0.00,0.04,0.03,0.07,0.01,0.03,0.04,0.02,0.03,0.02,0.01,0.03,0.00,0.02,0.06,0.05,0.05,0.02,0.02,0.01,0.00,0.01,0.00,0.01,0.02,0.03,0.03,0.02,0.00,0.00,0.01,0.02,0.01,0.05,0.02,0.06,0.09,0.11,0.09,0.05,0.01,0.00,0.02,0.03,0.01,0.01,0.00,0.00,0.00,0.00,0.00,0.01,0.02,0.02,0.00,0.03,0.03,0.04,0.03,0.02,0.00,0.01,0.02,0.00,0.00,0.01,0.02,0.01,0.02,0.05,0.04,0.03,0.02,0.00,0.00,0.00,0.00,0.01,0.00,0.00,0.00,0.01,0.01,0.02,0.00,0.00,0.02,0.02,0.02,0.00,0.00,0.03,0.01,0.02,0.01,0.00,0.00,0.04,0.08,0.00,0.00,0.00,0.00,0.01,0.00,0.01,0.04,0.05,0.01,0.02,0.02,0.05,0.04,0.01,0.03,0.01,0.02,0.05,0.09,0.08,0.07,0.06,0.03,0.02,0.02,0.00,0.00,0.00,0.05,0.04,0.02,0.03,0.06,0.02,0.00,0.01,0.02,0.03,0.04,0.04,0.03,0.03,0.04,0.02,0.05,0.10,0.10,0.09,0.05,0.01,0.03,0.03,0.02,0.06,0.05,0.06,0.05,0.00,0.00,0.00,0.01,0.00,0.02,0.04,0.04,0.03,0.02,0.05,0.05,0.03,0.01,0.00,0.00,0.00,0.01,0.00,0.00,0.04,0.07,0.03,0.00,0.01,0.03,0.04,0.02,0.05,0.06,0.06,0.05,0.03,0.01,0.02,0.00,0.01,0.02,0.00,0.03,0.00,0.02,0.03,0.03,0.02,0.02,0.03,0.01,0.03,0.10,0.07,0.03,0.01,0.00,0.03,0.08,0.03,0.03,0.00,0.05,0.05,0.00,0.04,0.00,0.00,0.01,0.00,0.01,0.01,0.00,0.01,0.03,0.05,0.04,0.03,0.01,0.00,0.00,0.02,0.00,0.05,0.03,0.01,0.01,0.02,0.02,0.03,0.03,0.02,0.05,0.05,0.04,0.05,0.04,0.03,0.04,0.03,0.03,0.02,0.03,0.00,0.02,0.02,0.02,0.02,0.02,0.01,0.01,0.03,0.02,0.02,0.04,0.06,0.06,0.02,0.03,0.03,0.02,0.02,0.02,0.02,0.02,0.04,0.07,0.06,0.06,0.05,0.05,0.04,0.03,0.03,0.03,0.02,0.02,0.01,0.01,0.00,0.00,0.01,0.00,0.00,0.00,0.00,0.00,0.00,0.00,0.01,0.02,0.01,0.02,0.02,0.02,0.03,0.01,0.01,0.01,0.01,0.02,0.03,0.03,0.03,0.03,0.02,0.02,0.03,0.03,0.01,0.03,0.05,0.04,0.00,0.00,0.02,0.01,0.00,0.00,0.00,0.02,0.01,0.04,0.03,0.04,0.05,0.07,0.07,0.03,0.01,0.03,0.03,0.05,0.04,0.03,0.02,0.05,0.04,0.04,0.02,0.03,0.04,0.02,0.02,0.00,0.01,0.02,0.04,0.04,0.02,0.00,0.00,0.01,0.04,0.04,0.08,0.06,0.03,0.08,0.09,0.06,0.03,0.05,0.04,0.07,0.05,0.05,0.05,0.04,0.03,0.03,0.06,0.06,0.05,0.05,0.05,0.05,0.01,0.00,0.03,0.01,0.00,0.00,0.02,0.04,0.02,0.00,0.05,0.03,0.01,0.01,0.03,0.06,0.03,0.00,0.03,0.05,0.06,0.06,0.06,0.03,0.07,0.07,0.05,0.06,0.08,0.05,0.05,0.05,0.03,0.02,0.01,0.00,0.01,0.00,0.00,0.00,0.00,0.00,0.01,0.00,0.00,0.00,0.00,0.02,0.00,0.02,0.02,0.05,0.00,0.00,0.02,0.03,0.03,0.05,0.05,0.02,0.00,0.00,0.02,0.03,0.02,0.01,0.02,0.00,0.00,0.05,0.07,0.07,0.02,0.05,0.04,0.04,0.06,0.02,0.01,0.02,0.01,0.01,0.03,0.01,0.08,0.14,0.07,0.02,0.02,0.06,0.06,0.01,0.02,0.01,0.02,0.01,0.00,0.01,0.00,0.01,0.00,0.00,0.02,0.04,0.02,0.00,0.01,0.01,0.00,0.00,0.03,0.01,0.02,0.02,0.00,0.00,0.00,0.02,0.09,0.08,0.04,0.02,0.00,0.01,0.01,0.00,0.01,0.03,0.03,0.04,0.06,0.09,0.06,0.03,0.04,0.05,0.04,0.01,0.01,0.04,0.03,0.05,0.10,0.10,0.06,0.00,0.07,0.04,0.06,0.05,0.08,0.11,0.06,0.08,0.05,0.13,0.15,0.07,0.00,0.02,0.02,0.08,0.27,0.59,0.73,0.62,0.42,0.27,0.18,0.02,0.05,1.08,1.57,1.01,0.72,1.29,1.47,0.81,0.29,0.10,0.36,0.02,0.69,0.37,0.12,0.94,1.13,0.59,0.66,1.92,3.16,1.75,0.03,0.10,0.38,0.86,0.94,2.45,2.92,1.25,0.96,2.71,3.16,3.03,2.11,3.16,3.16,2.77,1.01,0.35,0.30,1.08,1.57,2.16,0.53,0.70,0.02,1.22,1.62,0.75,2.42,1.91,2.35,3.16,3.16,1.40,3.17,3.17,1.53,0.62,0.68,0.63,0.07,0.19,2.08,2.44,0.42,2.39,2.30,2.86,3.16,3.05,1.55,3.17,1.81,0.18,1.30,0.41,1.60,1.69,0.74,0.94,0.59,1.81,3.17,2.13,0.99,0.25,0.68,0.96,0.64,1.44,1.41,1.00,0.57,0.38,0.46,0.67,0.99,1.58,2.39,2.33,2.05,1.70,0.84,0.91,1.36,0.26,1.14,1.04,0.61,0.15,0.37,0.11,0.43,0.63,0.52,1.85,2.04,1.47,0.26,0.65,0.04,1.35,2.16,0.43,3.08,2.69,2.03,1.97,2.99,3.17,3.17,2.46,0.83,0.88,1.61,1.80,0.38,1.36,0.31,0.35,0.96,0.51,0.95,1.79,1.71,0.96,0.97,1.51,2.14,2.87,1.59,0.37,0.18,1.06,1.44,1.66,1.68,0.06,2.24,3.17,3.17,2.97,0.37,3.16,3.06,0.54,2.12,2.22,1.72,0.89,0.55,0.14,0.04,0.22,0.02,1.19,0.94,0.32,1.79,1.22,0.23,0.27,0.37,0.14,0.17,0.51,0.56,0.05,0.24,0.86,2.02,2.02,1.20,1.12,0.61,0.03,0.48,1.32,1.45,0.44,0.59,0.82,0.48,1.33,0.38,0.41,0.04,0.56,0.64,0.19,0.06,0.24,0.25,0.19,0.03,0.75,1.81,2.39,2.63,3.05,2.17,0.37,0.36,0.75,1.53,1.17,0.80,2.82,3.16,3.16,2.25,2.06,1.57,0.86,0.04,0.73,0.84,0.37,0.24,0.85,0.58,0.54,0.02,0.43,0.10,0.02,0.18,0.16,0.73,1.35,0.51,0.26,0.70,2.43,2.40,1.36,0.19,0.12,0.29,0.41,1.32,1.21,0.27,0.32,0.25,0.62,0.98,0.15,0.66,0.56,0.43,0.43,0.33,0.61,0.91,1.21,1.55,1.76,1.34,2.25,2.86,2.39,0.46,0.27,1.63,1.06,1.06,1.26,2.69,3.16,3.16,2.80,1.37,0.55,0.31,1.09,1.40,1.55,2.03,0.76,0.44,0.55,0.25,0.75,0.22,0.07,0.22,0.20,0.56,1.31,2.00,2.08,1.95,0.13,3.15,1.51,0.53,0.08,0.05,0.88,1.21,0.83,0.10,0.08,0.95,1.15,1.57,1.24,1.20,1.66,1.71,0.23,0.83,0.54,0.08,0.08,0.57,0.98,0.41,0.38,0.17,0.09,0.05,0.09,0.10,0.33,0.07,0.70,1.27,1.37,1.03,1.45,1.33,0.40,0.78,0.82,0.63,0.20,0.66,0.78,0.06,0.38,1.15,0.74,1.18,1.54,0.80,1.34,1.76,1.70,0.70,0.19,0.40,0.77,0.93,1.21,0.82,0.41,0.67,0.36,0.54,1.15,0.13,0.71,0.70,0.25,1.14,1.35,0.82,0.07,0.10,0.46,0.40,0.24,0.06,0.10,0.24,0.07,0.88,0.77,0.48,0.27,0.07,0.10,0.38,0.51,0.84,0.70,0.45,0.93,1.37,0.86,1.00,1.15,0.80,0.02,0.85,1.23,1.45,0.43,0.27,0.31,1.13,0.86,0.14,1.90,2.53,1.89,1.37,0.70,0.75,1.73,2.23,0.96,1.77,1.05,0.67,0.04,1.23,1.69,0.86,0.34,2.56,1.82,0.86,2.68,3.16,0.80,0.99,1.01,0.63,0.32,0.54,0.65,0.37,1.13,2.03,1.93,1.33,0.85,0.42,0.28,0.16,0.17,0.76,1.11,1.26,0.87,0.27,0.24,0.44,0.39,0.19,0.08,0.07,0.62,0.99,0.86,0.37,0.40,0.96,1.25,1.55,0.16,0.85,1.46,0.93,1.53,1.20,0.69,0.52,1.89,2.35,1.08,0.52,2.54,3.16,2.05,0.02,2.07,3.17,3.17,1.30,2.58,3.16,3.16,2.24,2.06,1.68,0.98,0.42,0.10,0.11,0.51,0.90,0.64,0.78,1.41,1.31,0.22,0.42,0.59,0.59,0.90,0.23,0.20,0.45,0.75,0.72,0.37,0.00,0.29,0.53,0.12,0.09,0.45,0.72,0.98,2.45,3.00,3.17,2.24,1.38,0.22,1.16,0.45,1.09,1.43,1.57,2.53,2.76,1.51,1.02,3.17,3.17,3.01,0.58,1.91,3.16,3.16,3.16,2.15,1.25,0.44,0.69,2.04,3.17,3.17,2.25,1.32,3.16,1.94,0.49,1.32,2.33,1.74,0.44,0.41,0.13,0.38,0.25,0.68,0.14,1.55,2.00,1.05,0.16,0.14,1.10,0.93,0.24,0.82,0.27,0.01,0.30,0.19,0.27,0.21,0.41,1.36,1.55,0.58,0.23,0.08,0.14,0.02,0.06,0.18,0.16,0.41,0.47,0.32,0.10,0.16,1.03,2.37,3.05,1.66,0.72,1.09,3.10,3.16,3.08,2.03,0.56,1.89,2.80,1.92,0.67,1.09,2.75,1.46,0.11,2.44,3.17,3.17,0.84,3.16,3.04,1.73,1.61,0.46,0.19,0.30,0.30,0.35,0.53,0.16,0.31,0.08,0.23,0.63,0.23,0.29,0.11,0.39,0.68,0.56,0.14,0.71,0.86,0.66,0.47,1.43,2.30,2.74,1.84,0.33,1.50,1.52,1.01,0.77,0.68,0.30,0.07,0.10,0.01,0.34,0.45,0.50,0.46,0.25,0.02,0.07,0.25,0.33,0.18,0.07,0.23,0.25,0.14,0.05,0.27,0.37,0.48,0.27,0.60,0.66,0.29,0.74,1.36,1.94,1.84,1.44,1.35,0.09,1.72,1.16,0.91,0.74,0.72,0.53,0.31,0.13,0.03,0.01,0.05,0.06,0.07,0.08,0.08,0.09,0.08,0.05,0.02,0.00,0.04,0.06,0.10,0.14,0.16,0.19,0.22,0.24,0.24,0.27,0.32,0.36,0.40,0.44,0.46,0.48,0.50,0.51,0.51,0.50,0.50,0.45,0.44,0.41,0.40,0.34,0.27,0.24,0.21,0.21,0.21,0.22,0.13,0.14,0.18,0.20,0.14,0.10,0.07,0.08,0.03,0.03,0.05,0.06,0.04,0.02,0.01,0.01,0.08,0.13,0.14,0.12,0.13,0.16,0.16,0.14,0.20,0.21,0.16,0.11,0.21,0.26,0.25,0.19,0.17,0.18,0.17,0.13,0.12,0.09,0.06,0.05,0.02,0.00,0.00,0.00,0.01,0.03,0.03,0.03,0.02,0.09,0.05,0.02,0.06,0.08,0.11,0.12,0.12,0.16,0.17,0.16,0.17,0.16,0.16,0.17,0.16,0.16,0.16,0.18,0.17,0.16,0.13,0.13,0.13,0.13,0.11,0.11,0.14,0.10,0.11,0.14,0.18,0.22,0.27,0.24,0.25,0.26,0.22,0.27,0.30,0.32,0.28,0.27,0.33,0.35,0.32,0.27,0.31,0.25,0.25,0.29,0.38,0.21,0.10,0.03,0.16,0.24,0.05,0.02,0.08,0.10,0.08,0.02,0.07,0.06,0.04,0.08,0.02,0.29,0.29,0.12,0.02,0.03,0.01,0.03,0.04,0.06,0.05,0.08,0.10,0.12,0.14,0.16,0.13,0.13,0.09,0.08,0.08,0.05,0.06,0.06,0.08,0.08,0.11,0.12,0.13,0.14,0.16,0.16,0.18,0.17,0.16,0.17,0.18,0.22,0.27,0.26,0.30,0.36,0.35,0.36,0.35,0.33,0.36,0.38,0.37,0.33,0.28,0.30,0.28,0.24,0.17,0.11,0.10,0.11,0.10,0.11,0.17,0.14,0.12,0.10,0.08,0.00,0.07,0.09,0.08,0.06,0.09,0.08,0.08,0.06,0.04,0.02,0.05,0.02,0.08,0.08,0.08,0.09,0.08,0.08,0.08,0.14,0.14,0.15,0.18,0.20,0.19,0.19,0.10,0.09,0.11,0.09,0.10,0.13,0.10,0.06,0.04,0.06,0.08,0.06,0.05,0.03,0.02,0.00,0.00,0.02,0.09,0.10,0.12,0.14,0.13,0.12,0.11,0.11,0.12,0.12,0.13,0.08,0.21,0.26,0.26,0.24,0.21,0.21,0.18,0.14,0.10,0.03,0.00,0.05,0.05,0.01,0.04,0.07,0.11,0.17,0.29,0.25,0.19,0.30,0.35,0.35,0.31,0.29,0.29,0.29,0.30,0.28,0.24,0.19,0.16,0.16,0.10,0.12,0.14,0.12,0.04,0.01,0.01,0.08,0.09,0.06,0.04,0.12,0.12,0.08,0.14,0.22,0.21,0.21,0.14,0.15,0.22,0.24,0.24,0.21,0.21,0.19,0.22,0.24,0.22,0.17,0.25,0.34,0.41,0.46,0.49,0.53,0.57,0.61,0.66,0.78,0.82,0.63,0.43,0.21,0.16,0.13,0.11,0.06,0.03,0.14,0.18,0.18,0.32,0.38,0.43,0.37,0.31,0.30,0.32,0.32,0.32,0.30,0.22,0.18,0.18,0.22,0.25,0.23,0.23,0.25,0.22,0.19,0.18,0.17,0.17,0.18,0.25,0.34,0.35,0.38,0.42,0.49,0.55,0.53,0.45,0.41,0.40,0.44,0.51,0.52,0.53,0.49,0.50,0.48,0.40,0.36,0.40,0.42,0.43,0.39,0.32,0.27,0.28,0.29,0.31,0.34,0.38,0.41,0.45,0.47,0.46,0.50,0.54,0.54,0.53,0.61,0.67,0.64,0.60,0.58,0.53,0.50,0.48,0.38,0.31,0.28,0.25,0.22,0.18,0.15,0.17,0.16,0.12,0.09,0.09,0.11,0.13,0.14,0.28,0.38,0.38,0.34,0.35,0.37,0.40,0.42,0.49,0.56,0.56,0.57,0.58,0.59,0.57,0.55,0.53,0.50,0.48,0.42,0.38,0.34,0.29,0.25,0.21,0.18,0.14,0.11,0.08,0.06,0.05,0.05,0.03,0.03,0.04,0.03,0.03,0.02,0.02,0.02,0.04,0.03,0.06,0.05,0.04,0.04,0.04,0.03,0.03,0.01,0.02,0.01,0.02,0.02,0.00,0.03,0.03,0.05,0.04,0.03,0.01,0.03,0.05,0.09,0.07,0.11,0.04,0.04,0.02,0.00,0.02,0.06,0.07,0.08,0.08,0.07,0.06,0.05,0.05,0.04,0.03,0.00,0.02,0.03,0.03,0.04,0.04,0.01,0.02,0.04,0.05,0.06,0.08,0.06,0.04,0.09,0.08,0.05,0.02,0.04,0.03,0.03,0.01,0.01,0.03,0.03,0.01,0.01,0.01,0.08,0.04,0.00,0.02,0.02,0.02,0.02,0.00,0.01,0.02,0.03,0.02,0.02,0.00,0.00,0.00,0.00,0.01,0.03,0.03,0.02,0.02,0.04,0.02,0.04,0.02,0.00,0.02,0.01,0.01,0.02,0.03,0.02,0.02,0.06,0.06,0.06,0.06,0.06,0.07,0.09,0.10,0.10,0.11,0.13,0.15,0.16,0.16,0.18,0.17,0.15,0.18,0.16,0.15,0.08,0.03,0.08,0.14,0.17,0.11,0.06,0.08,0.16,0.20,0.17,0.17,0.17,0.15,0.12,0.10,0.10,0.13,0.13,0.08,0.08,0.10,0.09,0.09,0.10,0.08,0.11,0.10,0.10,0.11,0.09,0.09,0.08,0.09,0.09,0.09,0.07,0.07,0.07,0.07,0.08,0.03,0.00,0.02,0.02,0.02,0.02,0.02,0.10,0.06,0.05,0.06,0.05,0.03,0.06,0.11,0.11,0.10,0.10,0.12,0.11,0.08,0.05,0.05,0.03,0.02,0.01,0.04,0.11,0.09,0.08,0.08,0.06,0.06,0.07,0.05,0.05,0.04,0.02,0.02,0.05,0.04,0.07,0.08,0.13,0.18,0.17,0.18,0.17,0.13,0.12,0.16,0.18,0.18,0.19,0.19,0.17,0.16,0.16,0.16,0.16,0.16,0.15,0.15,0.16,0.14,0.15,0.15,0.15,0.15,0.16,0.16,0.15,0.14,0.15,0.16,0.18,0.16,0.15,0.15,0.15,0.13,0.12,0.13,0.13,0.14,0.14,0.13,0.14,0.13,0.14,0.14,0.10,0.08,0.09,0.11,0.10,0.10,0.10,0.11,0.14,0.11,0.12,0.11,0.09,0.09,0.10,0.11,0.10,0.11,0.10,0.08,0.12,0.12,0.10,0.12,0.13,0.20,0.12,0.13,0.13,0.11,0.10,0.10,0.09,0.09,0.04,0.01,0.03,0.07,0.11,0.10,0.10,0.10,0.06,0.05,0.05,0.05,0.04,0.04,0.08,0.05,0.06,0.06,0.07,0.08,0.07,0.08,0.06,0.04,0.04,0.04,0.02,0.04,0.04,0.02,0.00,0.00,0.02,0.00,0.01,0.00,0.01,0.03,0.00,0.01,0.00,0.01,0.02,0.02,0.05,0.04,0.03,0.03,0.03,0.03,0.03,0.05,0.07,0.00,0.01,0.01,0.03,0.02,0.04,0.02,0.03,0.00,0.03,0.00,0.00,0.02,0.05,0.03,0.05,0.04,0.05,0.02,0.03,0.03,0.04,0.05,0.02,0.00,0.00,0.05,0.09,0.08,0.02,0.09,0.05,0.02,0.06,0.02,0.00,0.00,0.02,0.03,0.02,0.03,0.00,0.00,0.01,0.01,0.02,0.03,0.04,0.05,0.05,0.02,0.02,0.05,0.06,0.07,0.07,0.07,0.08,0.09,0.09,0.08,0.05,0.07,0.07,0.05,0.03,0.03,0.01,0.00,0.01,0.00,0.01,0.00,0.00,0.02,0.03,0.04,0.05,0.04,0.02,0.03,0.03,0.03,0.02,0.02,0.02,0.00,0.01,0.02,0.03,0.00,0.00,0.00,0.01,0.00,0.01,0.00,0.00,0.03,0.03,0.00,0.03,0.02,0.01,0.01,0.01,0.00,0.03,0.06,0.07,0.06,0.08,0.13,0.10,0.08,0.09,0.07,0.06,0.07,0.08,0.08,0.08,0.06,0.08,0.08,0.08,0.07,0.06,0.11,0.13,0.07,0.06,0.06,0.07,0.08,0.09,0.11,0.06,0.10,0.10,0.10,0.10,0.09,0.08,0.10,0.11,0.11,0.12,0.12,0.13,0.13,0.12,0.12,0.12,0.11,0.11,0.12,0.10,0.12,0.12,0.12,0.10,0.08,0.07,0.08,0.12,0.18,0.13,0.11,0.09,0.10,0.07,0.05,0.05,0.03,0.04,0.03,0.05,0.07,0.03,0.01,0.06,0.07,0.05,0.08,0.12,0.11,0.06,0.04,0.03,0.04,0.09,0.16,0.10,0.07,0.06,0.05,0.07,0.07,0.06,0.04,0.02,0.02,0.00,0.00,0.02,0.01,0.06,0.05,0.02,0.06,0.08,0.04,0.03,0.03,0.04,0.02,0.00,0.00,0.00,0.00,0.01,0.02,0.01,0.02,0.02,0.01,0.00,0.00,0.02,0.01,0.03,0.05,0.03,0.01,0.02,0.00,0.00,0.01,0.01,0.00,0.00,0.00,0.00,0.00,0.02,0.03,0.05,0.04,0.04,0.03,0.02,0.05,0.03,0.03,0.00,0.00,0.02,0.02,0.02,0.03,0.01,0.01,0.02,0.02,0.00,0.02,0.01,0.00,0.00,0.02,0.02,0.02,0.08,0.04,0.00,0.02,0.00,0.00,0.00,0.02,0.04,0.03,0.03,0.02,0.03,0.03,0.03,0.03,0.02,0.02,0.03,0.02,0.03,0.02,0.00,0.02,0.00,0.02,0.02,0.02,0.02,0.05,0.14,0.06,0.04,0.03,0.04,0.03,0.04,0.05,0.03,0.03,0.00,0.02,0.01,0.01,0.02,0.01,0.00,0.01,0.03,0.04,0.02,0.02,0.02,0.02,0.02,0.01,0.03,0.02,0.01,0.03,0.02,0.06,0.08,0.08,0.07,0.07,0.04,0.06,0.07,0.04,0.03,0.06,0.13,0.10,0.00,0.02,0.03,0.03,0.02,0.05,0.07,0.04,0.04,0.03,0.02,0.02,0.02,0.02,0.03,0.02,0.02,0.01,0.04,0.05,0.03,0.06,0.08,0.06,0.03,0.05,0.05,0.05,0.07,0.08,0.06,0.06,0.07,0.07,0.05,0.05,0.05,0.04,0.05,0.06,0.05,0.05,0.05,0.03,0.02,0.00,0.00,0.05,0.03,0.02,0.05,0.02,0.02,0.08,0.14,0.06,0.05,0.13,0.08,0.03,0.01,0.02,0.02,0.00,0.01,0.01,0.05,0.04,0.03,0.03,0.02,0.01,0.00,0.00,0.01,0.00,0.00,0.00,0.02,0.04,0.04,0.02,0.02,0.02,0.00,0.01,0.01,0.00,0.00,0.01,0.00,0.00,0.00,0.01,0.02,0.01,0.00,0.02,0.01,0.02,0.01,0.03,0.02,0.04,0.03,0.03,0.03,0.00,0.01,0.01,0.03,0.02,0.00,0.02,0.02,0.00,0.00,0.01,0.01,0.02,0.01,0.00,0.01,0.01,0.00,0.00,0.01,0.01,0.01,0.00,0.00,0.02,0.02,0.00,0.00,0.06,0.10,0.06,0.06,0.03,0.03,0.04,0.05,0.04,0.07,0.07,0.04,0.03,0.03,0.02,0.00,0.01,0.00,0.03,0.05,0.04,0.02,0.03,0.00,0.02,0.02,0.00,0.00,0.02,0.00,0.10,0.12,0.05,0.03,0.00,0.02,0.02,0.03,0.02,0.03,0.05,0.03,0.03,0.06,0.05,0.04,0.04,0.03,0.03,0.05,0.05,0.02,0.02,0.03,0.01,0.07,0.06,0.06,0.05,0.04,0.02,0.02,0.02,0.01,0.02,0.05,0.05,0.04,0.03,0.06,0.05,0.05,0.07,0.08,0.08,0.07,0.06,0.06,0.06,0.09,0.08,0.07,0.06,0.08,0.07,0.06,0.07,0.04,0.05,0.05,0.04,0.04,0.04,0.04,0.07,0.08,0.06,0.05,0.05,0.04,0.03,0.05,0.06,0.05,0.05,0.10,0.06,0.05,0.06,0.07,0.08,0.08,0.05,0.03,0.04,0.05,0.04,0.04,0.08,0.05,0.05,0.04,0.06,0.05,0.05,0.04,0.03,0.00,0.00,0.00,0.03,0.04,0.02,0.02,0.02,0.01,0.03,0.02,0.02,0.02,0.01,0.04,0.04,0.02,0.04,0.05,0.03,0.02,0.06,0.03,0.01,0.02,0.02,0.00,0.00,0.03,0.07,0.04,0.05,0.06,0.05,0.02,0.01,0.02,0.00,0.00,0.04,0.02,0.03,0.01,0.00,0.02,0.01,0.03,0.06,0.07,0.00,0.01,0.01,0.08,0.05,0.03,0.00,0.00,0.00,0.01,0.02,0.00,0.01,0.00,0.00,0.01,0.01,0.02,0.00,0.00,0.00,0.00,0.02,0.03,0.02,0.03,0.05,0.03,0.02,0.00,0.02,0.04,0.01,0.00,0.02,0.01,0.01,0.01,0.03,0.02,0.03,0.04,0.01,0.00,0.00,0.02,0.02,0.01,0.00,0.00,0.01,0.04,0.05,0.01,0.01,0.02,0.02,0.04,0.03,0.00,0.01,0.06,0.07,0.03,0.02,0.02,0.01,0.01,0.03,0.10,0.03,0.01
0.01,0.00,0.00,0.02,0.04,0.03,0.02,0.02,0.00,0.01,0.00,0.00,0.00,0.02,0.02,0.00,0.00,0.00,0.01,0.01,0.01,0.05,0.06,0.08,0.08,0.03,0.00,0.00,0.00,0.00,0.01,0.01,0.04,0.05,0.07,0.08,0.08,0.04,0.00,0.03,0.04,0.02,0.03,0.02,0.00,0.00,0.00,0.01,0.01,0.02,0.03,0.05,0.01,0.01,0.02,0.01,0.00,0.03,0.02,0.01,0.01,0.00,0.00,0.01,0.04,0.03,0.02,0.01,0.02,0.05,0.08,0.08,0.06,0.06,0.05,0.05,0.05,0.03,0.06,0.06,0.06,0.09,0.09,0.05,0.07,0.04,0.02,0.00,0.03,0.03,0.05,0.03,0.03,0.04,0.03,0.03,0.05,0.04,0.05,0.05,0.05,0.04,0.05,0.05,0.06,0.08,0.07,0.07,0.07,0.05,0.05,0.03,0.05,0.14,0.06,0.03,0.08,0.08,0.09,0.10,0.06,0.05,0.04,0.05,0.06,0.01,0.02,0.01,0.00,0.01,0.02,0.02,0.01,0.00,0.00,0.02,0.04,0.01,0.00,0.05,0.03,0.05,0.08,0.09,0.07,0.05,0.05,0.05,0.08,0.07,0.05,0.05,0.05,0.03,0.02,0.00,0.01,0.01,0.05,0.07,0.07,0.04,0.02,0.03,0.06,0.02,0.01,0.00,0.01,0.05,0.03,0.01,0.02,0.02,0.01,0.02,0.03,0.05,0.06,0.05,0.03,0.07,0.08,0.05,0.03,0.03,0.03,0.07,0.08,0.06,0.04,0.05,0.05,0.03,0.02,0.02,0.02,0.02,0.02,0.00,0.00,0.01,0.00,0.02,0.03,0.02,0.02,0.02,0.02,0.02,0.04,0.03,0.02,0.03,0.05,0.05,0.02,0.00,0.00,0.05,0.03,0.00,0.00,0.00,0.01,0.00,0.00,0.02,0.05,0.03,0.00,0.01,0.01,0.01,0.02,0.02,0.03,0.03,0.03,0.02,0.01,0.01,0.01,0.00,0.00,0.00,0.03,0.02,0.04,0.02,0.01,0.02,0.02,0.00,0.01,0.03,0.07,0.06,0.03,0.03,0.05,0.06,0.08,0.06,0.03,0.02,0.01,0.02,0.01,0.02,0.03,0.03,0.03,0.02,0.01,0.04,0.02,0.00,0.01,0.03,0.00,0.00,0.01,0.02,0.02,0.00,0.04,0.06,0.06,0.08,0.03,0.03,0.03,0.00,0.03,0.05,0.11,0.08,0.06,0.05,0.05,0.03,0.03,0.05,0.02,0.02,0.03,0.01,0.03,0.02,0.00,0.00,0.00,0.01,0.02,0.02,0.03,0.04,0.04,0.03,0.03,0.04,0.03,0.04,0.05,0.05,0.05,0.05,0.06,0.05,0.05,0.07,0.07,0.06,0.06,0.06,0.06,0.06,0.06,0.05,0.05,0.05,0.05,0.04,0.03,0.04,0.02,0.03,0.02,0.05,0.06,0.09,0.08,0.04,0.04,0.02,0.02,0.03,0.09,0.11,0.06,0.05,0.06,0.08,0.08,0.05,0.05,0.03,0.02,0.02,0.01,0.01,0.02,0.02,0.03,0.01,0.02,0.02,0.01,0.03,0.02,0.02,0.00,0.01,0.04,0.05,0.00,0.00,0.03,0.00,0.01,0.01,0.00,0.00,0.01,0.00,0.00,0.00,0.00,0.00,0.03,0.01,0.00,0.01,0.03,0.03,0.01,0.05,0.05,0.05,0.02,0.03,0.02,0.02,0.02,0.02,0.03,0.02,0.03,0.03,0.02,0.00,0.01,0.00,0.01,0.01,0.01,0.01,0.02,0.01,0.00,0.02,0.01,0.02,0.05,0.03,0.03,0.03,0.04,0.05,0.03,0.02,0.03,0.03,0.02,0.03,0.04,0.02,0.03,0.06,0.06,0.04,0.04,0.03,0.02,0.00,0.02,0.00,0.01,0.02,0.03,0.03,0.03,0.06,0.03,0.00,0.02,0.05,0.08,0.02,0.00,0.00,0.01,0.01,0.01,0.04,0.02,0.03,0.02,0.05,0.03,0.05,0.03,0.03,0.03,0.00,0.01,0.00,0.00,0.01,0.01,0.05,0.02,0.01,0.02,0.04,0.04,0.03,0.04,0.03,0.03,0.04,0.01,0.00,0.02,0.01,0.04,0.07,0.05,0.03,0.04,0.06,0.05,0.05,0.04,0.03,0.04,0.03,0.03,0.02,0.04,0.05,0.03,0.02,0.02,0.02,0.02,0.02,0.02,0.01,0.02,0.03,0.02,0.02,0.00,0.01,0.00,0.01,0.01,0.02,0.03,0.04,0.06,0.10,0.08,0.08,0.05,0.05,0.03,0.03,0.03,0.04,0.05,0.05,0.05,0.05,0.04,0.02,0.01,0.02,0.05,0.06,0.06,0.04,0.02,0.04,0.00,0.00,0.03,0.03,0.00,0.02,0.05,0.05,0.05,0.04,0.01,0.02,0.07,0.04,0.03,0.02,0.05,0.03,0.12,0.06,0.00,0.00,0.05,0.07,0.07,0.13,0.13,0.10,0.07,0.05,0.05,0.08,0.07,0.04,0.01,0.02,0.03,0.03,0.03,0.02,0.03,0.02,0.03,0.02,0.03,0.02,0.02,0.02,0.02,0.03,0.03,0.03,0.01,0.01,0.01,0.01,0.02,0.03,0.02,0.02,0.00,0.02,0.01,0.01,0.02,0.01,0.01,0.00,0.02,0.05,0.05,0.07,0.03,0.02,0.00,0.01,0.00,0.00,0.03,0.03,0.01,0.00,0.01,0.02,0.02,0.03,0.00,0.01,0.00,0.00,0.01,0.01,0.04,0.07,0.05,0.00,0.00,0.02,0.02,0.04,0.02,0.05,0.06,0.06,0.05,0.07,0.06,0.06,0.06,0.05,0.04,0.08,0.06,0.00,0.00,0.05,0.03,0.03,0.04,0.04,0.05,0.04,0.08,0.04,0.02,0.01,0.02,0.02,0.04,0.05,0.02,0.05,0.06,0.06,0.06,0.07,0.04,0.02,0.02,0.02,0.02,0.01,0.00,0.00,0.00,0.00,0.02,0.04,0.06,0.04,0.02,0.03,0.02,0.01,0.02,0.02,0.03,0.03,0.01,0.01,0.02,0.07,0.03,0.02,0.02,0.03,0.03,0.03,0.02,0.05,0.06,0.06,0.03,0.04,0.03,0.03,0.00,0.00,0.01,0.04,0.02,0.01,0.02,0.05,0.05,0.03,0.04,0.02,0.00,0.01,0.05,0.06,0.03,0.06,0.07,0.02,0.02,0.03,0.02,0.01,0.02,0.02,0.01,0.02,0.02,0.03,0.01,0.00,0.00,0.00,0.02,0.05,0.06,0.01,0.01,0.01,0.02,0.02,0.02,0.01,0.00,0.02,0.02,0.00,0.00,0.01,0.01,0.00,0.00,0.00,0.00,0.02,0.02,0.02,0.03,0.05,0.05,0.00,0.03,0.01,0.03,0.03,0.00,0.02,0.02,0.02,0.03,0.01,0.10,0.07,0.03,0.02,0.02,0.03,0.03,0.04,0.02,0.01,0.01,0.00,0.01,0.02,0.02,0.02,0.02,0.00,0.01,0.05,0.03,0.02,0.07,0.07,0.03,0.02,0.01,0.02,0.02,0.03,0.02,0.02,0.03,0.04,0.04,0.01,0.00,0.03,0.05,0.04,0.02,0.03,0.07,0.04,0.01,0.03,0.01,0.02,0.03,0.03,0.02,0.02,0.02,0.05,0.10,0.05,0.03,0.07,0.03,0.01,0.01,0.02,0.01,0.02,0.03,0.06,0.10,0.06,0.04,0.05,0.06,0.07,0.06,0.06,0.04,0.02,0.03,0.04,0.03,0.02,0.04,0.07,0.04,0.05,0.06,0.06,0.04,0.03,0.03,0.00,0.01,0.01,0.02,0.02,0.02,0.06,0.06,0.03,0.03,0.05,0.07,0.02,0.04,0.08,0.06,0.03,0.04,0.06,0.05,0.06,0.08,0.09,0.08,0.08,0.08,0.06,0.03,0.00,0.00,0.03,0.04,0.03,0.05,0.02,0.00,0.02,0.09,0.14,0.08,0.04,0.05,0.02,0.05,0.05,0.05,0.16,0.12,0.04,0.08,0.04,0.07,0.08,0.09,0.10,0.10,0.03,0.13,0.10,0.09,0.24,0.21,0.10,0.12,0.11,0.01,0.15,0.13,0.03,0.24,0.38,0.24,0.15,0.49,0.61,0.67,0.89,1.17,1.63,1.28,0.82,0.25,0.02,0.38,0.52,0.80,0.70,0.22,0.03,0.08,0.08,0.54,0.56,0.77,0.86,0.09,0.74,0.90,0.62,1.04,0.45,0.63,0.52,0.22,1.83,2.90,1.26,1.10,1.41,0.70,0.35,1.88,1.65,1.42,1.87,2.43,2.49,2.60,1.81,1.32,1.31,1.39,0.37,0.45,1.94,3.12,1.71,0.99,0.58,1.53,0.03,3.16,3.17,3.17,3.17,3.17,3.17,2.47,0.43,1.04,1.42,1.37,1.46,3.16,3.16,3.16,2.15,0.77,0.63,1.67,2.35,3.17,2.94,1.70,1.02,1.60,0.74,1.31,1.96,1.64,1.84,1.00,0.24,0.71,0.74,0.15,0.45,0.18,0.92,1.38,1.90,0.69,1.31,3.03,3.17,3.17,3.07,0.87,3.16,3.16,3.16,3.16,3.16,1.86,1.37,1.84,1.64,0.17,1.59,2.45,2.64,1.44,0.38,0.19,1.39,0.51,0.05,0.74,1.65,1.31,0.58,0.36,0.32,2.31,2.57,2.22,1.97,1.19,0.96,1.31,2.21,0.14,1.65,1.59,0.79,3.14,3.17,2.09,1.20,1.21,1.24,1.01,1.39,2.04,3.09,2.76,0.14,2.95,1.96,0.98,1.04,1.40,2.52,3.16,3.16,3.16,3.16,3.16,3.16,2.32,1.57,0.83,0.22,0.28,0.43,0.37,0.89,0.66,2.77,3.17,3.17,3.17,3.17,3.17,3.07,1.68,3.16,3.16,3.16,3.16,3.16,1.94,1.04,2.11,1.80,0.69,1.96,0.21,0.42,0.35,0.41,0.75,0.48,0.36,0.64,1.01,1.05,1.30,1.29,1.21,0.80,0.19,0.14,0.20,0.13,0.03,0.81,0.84,0.28,0.45,0.01,0.64,0.29,0.38,0.83,0.72,1.91,1.89,0.13,1.05,1.42,0.71,1.93,0.82,0.41,1.08,0.98,0.26,3.16,3.00,1.69,0.98,0.43,0.01,0.11,0.67,0.62,0.40,1.60,0.89,0.89,3.16,2.00,1.40,3.12,2.40,0.42,0.33,0.64,0.61,2.00,1.78,1.19,1.33,1.32,1.25,1.25,1.17,1.37,2.61,3.17,2.64,1.65,0.50,0.17,0.14,0.61,1.39,3.16,3.16,3.16,3.16,3.16,3.16,2.00,1.16,0.32,2.28,3.17,3.17,2.86,3.17,3.17,3.13,0.50,3.16,3.16,0.43,0.74,0.24,0.37,1.16,1.27,1.25,1.31,1.61,1.76,2.32,2.48,2.31,0.72,1.46,1.44,0.33,0.20,0.36,0.75,0.10,0.42,0.34,0.77,0.12,0.18,0.34,0.21,0.27,0.21,0.93,1.42,0.34,1.25,1.09,0.25,1.26,1.92,0.66,1.20,0.83,0.10,0.03,1.08,1.65,2.09,0.66,2.38,3.16,3.16,3.16,1.94,1.05,0.15,0.92,2.05,2.12,0.78,0.61,0.99,2.29,0.06,2.55,1.61,0.38,0.86,1.82,2.25,1.37,0.67,0.90,0.86,0.37,0.43,0.72,0.88,1.45,2.33,2.46,1.27,0.90,3.04,2.99,2.52,1.70,0.39,0.93,0.00,0.96,0.44,0.12,1.31,1.37,0.84,0.48,0.43,0.53,0.48,0.19,0.07,0.26,0.30,0.08,0.18,0.16,0.00,0.38,0.54,0.86,1.35,1.82,1.48,1.41,1.65,0.64,0.82,1.37,0.62,0.14,1.04,0.10,3.16,3.16,3.16,2.23,1.06,0.00,0.86,1.26,1.06,0.20,1.75,1.03,1.69,2.59,2.14,0.83,0.05,1.73,1.78,0.94,0.43,0.94,1.20,1.60,2.03,1.27,1.35,1.15,0.63,0.79,0.43,1.23,1.43,1.01,0.97,2.92,2.57,1.56,1.00,0.05,0.07,0.14,0.07,0.74,0.01,0.22,0.37,0.64,0.15,0.38,2.94,3.16,3.02,1.95,1.19,0.17,0.31,1.34,1.93,0.20,1.34,1.75,0.57,0.25,0.26,0.26,0.23,0.68,1.91,2.81,2.31,0.19,2.98,2.57,1.13,1.00,1.07,0.98,0.34,0.74,1.34,0.80,0.57,0.37,0.48,0.53,0.06,0.05,0.24,0.54,0.48,0.32,0.73,0.75,0.70,0.11,0.24,0.62,1.35,0.85,0.67,1.01,0.91,1.55,1.52,1.29,0.33,1.78,2.06,1.55,0.95,0.10,1.25,2.28,1.81,0.06,0.43,1.52,1.42,0.70,0.22,0.39,0.63,1.63,2.92,2.65,2.07,0.77,0.27,0.83,1.12,1.50,2.05,1.29,0.22,0.01,0.49,0.64,0.63,0.30,0.12,0.05,0.13,0.34,0.14,0.14,0.00,0.41,0.38,0.14,0.18,0.54,1.12,0.36,0.43,0.19,1.20,1.60,1.07,0.62,2.41,1.40,0.66,1.72,1.21,0.56,0.02,0.50,0.58,0.80,1.14,1.37,0.93,0.21,0.04,0.10,0.24,0.33,0.08,0.45,0.33,0.31,0.18,1.58,2.87,2.30,1.21,1.04,0.22,0.43,1.02,1.45,0.55,1.25,1.08,0.38,0.13,0.83,1.59,1.10,0.31,0.90,0.95,1.19,1.72,1.64,1.26,0.96,0.66,0.14,0.28,0.33,0.14,0.15,0.16,0.06,0.18,0.35,0.51,0.45,0.27,0.02,0.19,0.15,0.00,0.16,0.10,0.18,0.23,0.34,0.14,0.11,0.24,0.12,0.42,0.37,0.27,0.18,0.06,0.00,0.03,0.06,0.05,0.04,0.02,0.02,0.01,0.00,0.02,0.03,0.03,0.01,0.00,0.01,0.02,0.02,0.00,0.01,0.03,0.05,0.04,0.05,0.02,0.00,0.00,0.02,0.04,0.06,0.06,0.07,0.06,0.03,0.03,0.01,0.01,0.04,0.03,0.06,0.14,0.13,0.06,0.03,0.00,0.04,0.04,0.02,0.03,0.02,0.00,0.05,0.02,0.15,0.15,0.10,0.27,0.20,0.14,0.24,0.24,0.20,0.17,0.16,0.14,0.13,0.13,0.09,0.07,0.06,0.08,0.08,0.10,0.07,0.08,0.27,0.29,0.03,0.02,0.10,0.21,0.24,0.02,0.03,0.04,0.18,0.21,0.13,0.05,0.04,0.05,0.03,0.07,0.12,0.16,0.18,0.20,0.23,0.26,0.24,0.24,0.22,0.23,0.19,0.16,0.63,0.76,0.23,0.06,0.01,0.06,0.20,0.29,0.26,0.21,0.17,0.13,0.10,0.08,0.05,0.03,0.03,0.02,0.03,0.02,0.01,0.04,0.08,0.10,0.05,0.07,0.08,0.10,0.14,0.15,0.19,0.24,0.27,0.24,0.26,0.25,0.23,0.30,0.31,0.28,0.24,0.22,0.19,0.15,0.15,0.17,0.13,0.11,0.13,0.13,0.15,0.14,0.15,0.13,0.10,0.13,0.14,0.13,0.14,0.16,0.14,0.10,0.11,0.08,0.04,0.00,0.06,0.14,0.08,0.00,0.04,0.05,0.01,0.07,0.11,0.09,0.11,0.11,0.18,0.19,0.19,0.30,0.25,0.19,0.18,0.18,0.16,0.18,0.18,0.25,0.24,0.22,0.27,0.19,0.14,0.16,0.21,0.19,0.18,0.19,0.07,0.05,0.06,0.30,0.31,0.14,0.11,0.15,0.24,0.26,0.19,0.22,0.29,0.33,0.18,0.22,0.28,0.27,0.30,0.34,0.29,0.14,0.12,0.09,0.06,0.04,0.00,0.02,0.04,0.06,0.06,0.08,0.13,0.16,0.19,0.20,0.22,0.24,0.14,0.18,0.19,0.17,0.13,0.10,0.10,0.09,0.03,0.05,0.09,0.10,0.10,0.11,0.13,0.17,0.16,0.17,0.17,0.13,0.11,0.08,0.03,0.02,0.05,0.05,0.00,0.02,0.00,0.02,0.02,0.02,0.06,0.08,0.08,0.08,0.07,0.11,0.12,0.11,0.11,0.12,0.10,0.08,0.06,0.04,0.02,0.03,0.02,0.02,0.01,0.01,0.02,0.06,0.07,0.07,0.08,0.07,0.06,0.04,0.01,0.00,0.06,0.10,0.07,0.03,0.03,0.03,0.02,0.03,0.06,0.06,0.05,0.12,0.15,0.16,0.22,0.18,0.14,0.13,0.04,0.02,0.01,0.02,0.04,0.07,0.05,0.03,0.08,0.03,0.02,0.02,0.03,0.02,0.05,0.10,0.09,0.09,0.13,0.14,0.12,0.12,0.16,0.10,0.03,0.00,0.05,0.08,0.07,0.08,0.05,0.06,0.10,0.07,0.09,0.14,0.19,0.21,0.25,0.27,0.30,0.20,0.06,0.11,0.14,0.18,0.19,0.16,0.16,0.18,0.19,0.22,0.25,0.26,0.26,0.24,0.25,0.25,0.25,0.26,0.26,0.23,0.19,0.15,0.19,0.25,0.29,0.34,0.35,0.33,0.27,0.34,0.33,0.31,0.32,0.30,0.29,0.28,0.29,0.24,0.26,0.24,0.26,0.30,0.27,0.26,0.24,0.12,0.01,0.06,0.04,0.12,0.06,0.00,0.05,0.05,0.05,0.05,0.05,0.07,0.10,0.05,0.01,0.03,0.00,0.01,0.02,0.07,0.03,0.03,0.08,0.05,0.10,0.22,0.15,0.10,0.11,0.15,0.18,0.18,0.16,0.19,0.20,0.22,0.23,0.22,0.23,0.21,0.21,0.22,0.24,0.23,0.23,0.21,0.21,0.21,0.21,0.21,0.23,0.24,0.25,0.24,0.21,0.21,0.22,0.24,0.24,0.22,0.26,0.28,0.27,0.26,0.24,0.24,0.24,0.23,0.22,0.28,0.39,0.36,0.35,0.35,0.35,0.37,0.34,0.36,0.37,0.37,0.35,0.33,0.33,0.42,0.45,0.39,0.40,0.35,0.38,0.38,0.34,0.33,0.31,0.29,0.27,0.25,0.22,0.20,0.19,0.18,0.16,0.18,0.16,0.18,0.13,0.12,0.16,0.22,0.20,0.20,0.16,0.13,0.09,0.08,0.06,0.09,0.03,0.02,0.08,0.05,0.03,0.01,0.00,0.01,0.07,0.07,0.03,0.00,0.00,0.00,0.03,0.02,0.03,0.03,0.05,0.02,0.03,0.07,0.07,0.05,0.06,0.07,0.07,0.05,0.06,0.06,0.05,0.04,0.02,0.02,0.00,0.01,0.03,0.02,0.00,0.00,0.02,0.00,0.00,0.03,0.03,0.03,0.06,0.06,0.06,0.06,0.08,0.09,0.08,0.06,0.08,0.08,0.05,0.06,0.06,0.07,0.08,0.06,0.03,0.04,0.07,0.05,0.01,0.00,0.03,0.06,0.06,0.08,0.02,0.01,0.03,0.11,0.08,0.04,0.08,0.06,0.05,0.08,0.11,0.08,0.09,0.09,0.11,0.11,0.14,0.13,0.11,0.11,0.13,0.15,0.18,0.16,0.07,0.03,0.01,0.06,0.08,0.06,0.05,0.07,0.07,0.11,0.14,0.11,0.10,0.10,0.08,0.06,0.07,0.10,0.10,0.12,0.09,0.08,0.09,0.08,0.08,0.06,0.03,0.03,0.03,0.02,0.00,0.01,0.00,0.00,0.00,0.00,0.00,0.00,0.01,0.01,0.02,0.03,0.01,0.01,0.02,0.03,0.02,0.01,0.02,0.00,0.01,0.03,0.05,0.00,0.01,0.01,0.03,0.03,0.04,0.01,0.05,0.03,0.03,0.03,0.00,0.03,0.04,0.04,0.02,0.02,0.01,0.03,0.03,0.03,0.00,0.02,0.02,0.01,0.00,0.02,0.00,0.01,0.01,0.00,0.02,0.01,0.01,0.02,0.02,0.02,0.01,0.00,0.00,0.04,0.03,0.05,0.04,0.05,0.06,0.08,0.10,0.05,0.05,0.10,0.09,0.11,0.11,0.13,0.09,0.07,0.06,0.06,0.09,0.17,0.18,0.16,0.13,0.12,0.11,0.11,0.11,0.09,0.08,0.07,0.07,0.10,0.10,0.03,0.05,0.08,0.05,0.06,0.08,0.08,0.09,0.11,0.09,0.06,0.04,0.03,0.02,0.00,0.00,0.06,0.03,0.00,0.03,0.24,0.16,0.07,0.05,0.05,0.07,0.09,0.10,0.09,0.08,0.06,0.05,0.05,0.05,0.06,0.06,0.05,0.02,0.02,0.00,0.00,0.01,0.01,0.00,0.01,0.01,0.08,0.05,0.03,0.03,0.02,0.04,0.03,0.02,0.01,0.03,0.04,0.02,0.03,0.02,0.00,0.00,0.00,0.02,0.02,0.03,0.03,0.02,0.01,0.01,0.02,0.00,0.03,0.05,0.04,0.04,0.04,0.05,0.01,0.01,0.00,0.00,0.01,0.02,0.00,0.00,0.01,0.01,0.00,0.01,0.02,0.02,0.01,0.01,0.02,0.07,0.03,0.00,0.02,0.01,0.04,0.03,0.02,0.04,0.05,0.07,0.07,0.00,0.06,0.02,0.02,0.06,0.09,0.05,0.03,0.01,0.02,0.02,0.06,0.08,0.06,0.04,0.00,0.03,0.07,0.08,0.06,0.03,0.04,0.02,0.06,0.05,0.01,0.00,0.01,0.04,0.06,0.03,0.00,0.01,0.00,0.01,0.03,0.03,0.04,0.00,0.02,0.04,0.03,0.02,0.05,0.08,0.01,0.02,0.01,0.02,0.04,0.00,0.01,0.02,0.00,0.00,0.00,0.03,0.04,0.04,0.04,0.05,0.01,0.01,0.05,0.00,0.02,0.02,0.00,0.01,0.02,0.01,0.00,0.05,0.08,0.05,0.00,0.00,0.00,0.01,0.02,0.02,0.02,0.03,0.02,0.02,0.03,0.05,0.05,0.04,0.05,0.04,0.05,0.04,0.03,0.00,0.00,0.00,0.02,0.01,0.08,0.21,0.15,0.08,0.07,0.06,0.08,0.07,0.08,0.11,0.10,0.01,0.03,0.04,0.03,0.04,0.06,0.04,0.02,0.00,0.04,0.06,0.06,0.01,0.01,0.03,0.03,0.02,0.06,0.08,0.16,0.18,0.21,0.14,0.08,0.08,0.04,0.04,0.03,0.00,0.03,0.07,0.03,0.00,0.00,0.01,0.00,0.00,0.00,0.02,0.04,0.05,0.05,0.05,0.03,0.05,0.05,0.05,0.06,0.02,0.04,0.04,0.05,0.03,0.04,0.05,0.03,0.03,0.01,0.02,0.02,0.02,0.05,0.00,0.01,0.05,0.13,0.15,0.12,0.06,0.02,0.03,0.04,0.05,0.04,0.04,0.02,0.00,0.03,0.05,0.05,0.06,0.06,0.04,0.02,0.02,0.02,0.03,0.02,0.02,0.01,0.00,0.01,0.02,0.02,0.03,0.01,0.01,0.04,0.03,0.03,0.01,0.01,0.02,0.00,0.00,0.00,0.03,0.00,0.00,0.00,0.03,0.05,0.04,0.06,0.03,0.01,0.01,0.03,0.01,0.00,0.04,0.10,0.04,0.03,0.05,0.02,0.04,0.05,0.08,0.03,0.01,0.02,0.04,0.02,0.01,0.04,0.03,0.03,0.02,0.05,0.05,0.06,0.06,0.05,0.05,0.05,0.02,0.06,0.10,0.11,0.11,0.11,0.06,0.04,0.10,0.13,0.06,0.02,0.00,0.00,0.06,0.05,0.04,0.02,0.02,0.00,0.00,0.01,0.00,0.01,0.04,0.05,0.05,0.05,0.02,0.03,0.00,0.00,0.01,0.00,0.02,0.01,0.03,0.06,0.03,0.02,0.01,0.01,0.01,0.00,0.01,0.00,0.02,0.00,0.01,0.00,0.05,0.02,0.02,0.05,0.05,0.03,0.01,0.00,0.05,0.08,0.05,0.02,0.03,0.03,0.06,0.06,0.04,0.05,0.04,0.02,0.00,0.00,0.05,0.08,0.04,0.02,0.03,0.08,0.05,0.01,0.02,0.05,0.03,0.07,0.06,0.05,0.06,0.06,0.06,0.06,0.03,0.06,0.05,0.02,0.03,0.03,0.11,0.11,0.06,0.09,0.07,0.07,0.06,0.07,0.07,0.05,0.02,0.01,0.00,0.02,0.00,0.00,0.02,0.01,0.02,0.01,0.00,0.00,0.00,0.00,0.02,0.03,0.04,0.05,0.05,0.03,0.03,0.08,0.06,0.04,0.03,0.03,0.02,0.00,0.02,0.01,0.04,0.08,0.08,0.05,0.03,0.02,0.00,0.00,0.00,0.02,0.02,0.04,0.09,0.05,0.03,0.05,0.08,0.10,0.10,0.06,0.10,0.08,0.04,0.06,0.06,0.02,0.03,0.03,0.02,0.01,0.00,0.00,0.02,0.01,0.01,0.00,0.00,0.00,0.01,0.01,0.03,0.02,0.03,0.02,0.03,0.00,0.02,0.08,0.05,0.02,0.00,0.01,0.02,0.03,0.03,0.02,0.01,0.02,0.02,0.00,0.01,0.02,0.01,0.03,0.05,0.02,0.08,0.05,0.02,0.02,0.02,0.02,0.01,0.02,0.01,0.05,0.03,0.00,0.02,0.02,0.03,0.00,0.00,0.00,0.00,0.00,0.02,0.02,0.00,0.00,0.00,0.01,0.00,0.00,0.00,0.00,0.02,0.03,0.02,0.02,0.05,0.06,0.04,0.09,0.08,0.02,0.05,0.02,0.05,0.13,0.11,0.03,0.03,0.04,0.04,0.04,0.04,0.00,0.01,0.02,0.02,0.03
0.02,0.02,0.03,0.03,0.02,0.00,0.03,0.03,0.04,0.04,0.00,0.08,0.04,0.05,0.08,0.04,0.00,0.02,0.01,0.00,0.02,0.02,0.02,0.02,0.02,0.03,0.04,0.04,0.05,0.04,0.05,0.05,0.01,0.02,0.04,0.05,0.05,0.03,0.03,0.05,0.04,0.00,0.00,0.02,0.00,0.03,0.00,0.01,0.01,0.01,0.04,0.03,0.03,0.01,0.00,0.02,0.01,0.01,0.05,0.03,0.00,0.02,0.02,0.01,0.02,0.01,0.01,0.00,0.01,0.00,0.01,0.04,0.04,0.03,0.00,0.01,0.02,0.01,0.02,0.06,0.05,0.02,0.03,0.02,0.01,0.01,0.02,0.01,0.01,0.02,0.00,0.05,0.04,0.02,0.02,0.00,0.01,0.01,0.00,0.00,0.00,0.01,0.00,0.00,0.02,0.05,0.05,0.04,0.02,0.08,0.15,0.09,0.08,0.08,0.05,0.03,0.01,0.01,0.03,0.06,0.08,0.06,0.08,0.06,0.04,0.03,0.04,0.02,0.03,0.02,0.02,0.02,0.02,0.02,0.01,0.01,0.00,0.01,0.00,0.03,0.03,0.06,0.08,0.08,0.05,0.05,0.08,0.06,0.04,0.04,0.04,0.05,0.03,0.01,0.03,0.03,0.03,0.04,0.05,0.03,0.01,0.00,0.00,0.01,0.00,0.00,0.00,0.00,0.01,0.01,0.00,0.03,0.03,0.05,0.04,0.02,0.01,0.06,0.11,0.07,0.06,0.05,0.05,0.05,0.02,0.03,0.03,0.03,0.04,0.01,0.02,0.02,0.02,0.00,0.02,0.05,0.06,0.05,0.11,0.11,0.09,0.02,0.02,0.03,0.00,0.01,0.02,0.02,0.02,0.04,0.04,0.04,0.05,0.01,0.02,0.01,0.00,0.01,0.00,0.00,0.00,0.01,0.01,0.02,0.02,0.03,0.01,0.01,0.02,0.03,0.00,0.02,0.01,0.02,0.02,0.02,0.02,0.02,0.03,0.02,0.01,0.02,0.03,0.01,0.00,0.01,0.01,0.02,0.02,0.02,0.02,0.01,0.02,0.09,0.07,0.02,0.00,0.02,0.03,0.02,0.03,0.02,0.00,0.00,0.00,0.01,0.01,0.02,0.03,0.02,0.03,0.05,0.02,0.02,0.01,0.01,0.00,0.02,0.03,0.02,0.00,0.00,0.00,0.01,0.00,0.02,0.03,0.02,0.01,0.02,0.01,0.01,0.01,0.03,0.02,0.02,0.03,0.02,0.04,0.07,0.06,0.05,0.04,0.02,0.03,0.00,0.01,0.00,0.03,0.02,0.02,0.01,0.06,0.07,0.03,0.02,0.03,0.01,0.01,0.02,0.03,0.04,0.04,0.00,0.11,0.08,0.10,0.06,0.04,0.03,0.02,0.01,0.02,0.00,0.05,0.06,0.06,0.07,0.08,0.07,0.04,0.02,0.02,0.03,0.02,0.02,0.01,0.00,0.01,0.02,0.02,0.03,0.01,0.01,0.00,0.00,0.01,0.01,0.00,0.00,0.00,0.00,0.00,0.06,0.08,0.05,0.08,0.11,0.07,0.07,0.08,0.06,0.06,0.08,0.08,0.07,0.05,0.05,0.04,0.03,0.05,0.03,0.02,0.03,0.02,0.02,0.02,0.02,0.03,0.02,0.00,0.00,0.00,0.01,0.00,0.02,0.03,0.02,0.02,0.02,0.02,0.02,0.01,0.00,0.00,0.00,0.00,0.00,0.00,0.02,0.02,0.02,0.01,0.05,0.00,0.00,0.00,0.00,0.01,0.00,0.02,0.02,0.01,0.04,0.01,0.00,0.06,0.13,0.06,0.02,0.03,0.05,0.03,0.00,0.02,0.02,0.02,0.01,0.04,0.05,0.00,0.02,0.03,0.03,0.04,0.02,0.02,0.03,0.00,0.08,0.05,0.05,0.06,0.06,0.07,0.05,0.02,0.02,0.03,0.01,0.03,0.03,0.02,0.01,0.01,0.02,0.00,0.00,0.00,0.00,0.01,0.00,0.02,0.00,0.00,0.02,0.03,0.02,0.02,0.02,0.02,0.01,0.01,0.01,0.02,0.00,0.00,0.00,0.00,0.00,0.00,0.00,0.01,0.02,0.03,0.03,0.00,0.00,0.00,0.00,0.00,0.02,0.02,0.00,0.02,0.01,0.01,0.02,0.02,0.04,0.05,0.03,0.03,0.00,0.01,0.01,0.02,0.03,0.04,0.06,0.05,0.02,0.01,0.02,0.01,0.00,0.05,0.06,0.05,0.00,0.03,0.05,0.06,0.02,0.04,0.05,0.03,0.12,0.13,0.10,0.04,0.00,0.01,0.03,0.04,0.04,0.02,0.02,0.02,0.02,0.02,0.03,0.08,0.06,0.04,0.06,0.05,0.04,0.03,0.04,0.09,0.03,0.00,0.02,0.02,0.02,0.03,0.04,0.03,0.02,0.02,0.02,0.00,0.00,0.02,0.00,0.00,0.01,0.01,0.02,0.02,0.02,0.04,0.02,0.04,0.03,0.02,0.03,0.03,0.03,0.03,0.04,0.05,0.05,0.06,0.04,0.03,0.04,0.03,0.01,0.00,0.02,0.02,0.01,0.06,0.10,0.03,0.00,0.00,0.01,0.04,0.01,0.01,0.04,0.08,0.02,0.02,0.00,0.03,0.02,0.01,0.01,0.00,0.03,0.02,0.03,0.01,0.04,0.03,0.03,0.05,0.05,0.03,0.01,0.01,0.03,0.03,0.01,0.04,0.02,0.01,0.02,0.05,0.09,0.04,0.00,0.01,0.01,0.04,0.03,0.01,0.05,0.03,0.00,0.01,0.02,0.02,0.03,0.04,0.04,0.03,0.04,0.02,0.00,0.01,0.02,0.05,0.05,0.05,0.07,0.06,0.03,0.01,0.01,0.02,0.03,0.03,0.01,0.01,0.00,0.01,0.01,0.01,0.03,0.02,0.02,0.01,0.00,0.02,0.02,0.08,0.07,0.05,0.02,0.01,0.03,0.06,0.02,0.01,0.02,0.05,0.08,0.05,0.02,0.02,0.03,0.04,0.03,0.02,0.02,0.15,0.08,0.01,0.01,0.00,0.00,0.00,0.03,0.01,0.00,0.01,0.04,0.04,0.03,0.02,0.00,0.01,0.08,0.12,0.08,0.01,0.00,0.03,0.13,0.13,0.11,0.10,0.09,0.09,0.09,0.03,0.03,0.07,0.08,0.08,0.09,0.09,0.09,0.10,0.07,0.05,0.06,0.04,0.01,0.00,0.00,0.00,0.00,0.00,0.00,0.00,0.00,0.02,0.03,0.03,0.03,0.02,0.01,0.02,0.04,0.06,0.09,0.08,0.10,0.06,0.05,0.03,0.03,0.06,0.05,0.06,0.00,0.00,0.03,0.05,0.02,0.01,0.02,0.02,0.03,0.08,0.08,0.06,0.07,0.11,0.10,0.08,0.27,0.19,0.15,0.15,0.07,0.00,0.04,0.09,0.25,0.42,0.58,0.72,1.09,1.32,0.80,0.05,0.25,0.29,0.14,0.00,0.07,0.21,0.39,0.11,0.34,0.17,0.91,1.49,1.84,2.11,2.08,1.07,0.27,1.03,2.38,2.48,2.77,1.89,0.89,0.68,0.73,0.30,0.37,0.24,1.70,1.27,0.69,0.52,0.30,0.03,1.10,2.09,1.79,1.91,2.08,1.16,0.46,0.23,0.11,0.79,2.04,2.10,1.86,1.74,1.92,1.55,0.14,0.47,0.64,0.65,0.35,2.11,3.16,3.16,3.16,2.25,0.26,0.73,1.68,2.76,2.57,2.06,0.24,0.86,0.73,0.45,1.18,1.25,1.33,0.78,3.12,2.62,0.77,1.05,0.44,1.34,3.16,2.15,1.22,3.17,2.61,1.09,0.94,1.55,1.89,1.87,1.87,1.66,1.57,0.84,1.87,1.71,0.79,3.16,3.16,3.16,3.12,1.75,0.63,0.93,1.21,0.82,0.04,0.99,1.57,1.66,1.13,0.60,0.50,0.69,0.21,0.57,0.77,1.50,1.59,1.81,1.25,0.53,0.30,0.86,2.14,2.42,1.38,1.03,0.10,1.71,2.71,2.96,2.79,1.78,1.10,1.54,0.98,0.20,0.85,0.20,0.72,0.57,0.58,1.46,1.49,0.30,0.05,0.09,0.52,0.91,0.99,2.30,1.36,0.11,0.26,0.22,1.37,2.74,2.66,1.47,1.10,1.22,0.87,1.75,3.16,1.64,1.37,2.37,1.28,0.57,2.84,3.16,2.11,1.49,1.29,0.46,0.30,0.12,0.00,0.19,0.40,0.83,1.14,0.92,1.65,2.47,1.77,0.55,3.16,3.16,2.41,0.06,0.49,0.45,0.30,0.94,1.43,0.11,0.00,0.02,0.67,1.25,0.54,0.34,0.17,0.12,0.18,0.19,0.62,2.08,3.17,3.17,3.17,2.40,0.56,0.95,2.49,2.90,3.16,3.16,2.77,0.69,1.39,3.06,3.17,2.56,0.98,3.16,2.86,2.01,1.94,1.78,1.60,0.98,0.43,0.34,1.22,1.17,0.96,1.01,0.32,0.54,0.98,0.86,0.56,0.12,0.19,0.77,0.93,0.37,0.09,0.38,0.73,0.23,0.05,0.00,1.06,1.97,1.96,1.30,1.40,0.78,0.19,0.42,0.83,0.82,0.65,0.44,0.29,0.16,0.10,0.12,0.76,1.37,1.47,1.26,0.48,0.24,0.34,0.54,0.19,0.24,0.07,1.02,1.49,0.68,0.57,1.27,1.65,2.32,2.47,1.47,0.00,1.86,3.17,3.06,1.34,0.67,0.95,1.07,0.70,1.32,2.42,2.63,0.99,0.85,1.62,1.77,1.89,2.29,1.40,0.06,1.38,0.98,0.28,0.40,1.06,0.53,0.32,1.04,1.39,0.72,0.43,0.20,0.09,0.14,0.24,0.21,0.28,0.34,0.11,0.01,0.28,0.43,0.36,0.07,0.72,1.02,0.94,0.98,1.35,1.55,0.65,0.37,0.62,0.70,0.71,0.85,0.98,0.10,0.75,0.15,2.64,2.54,0.60,0.80,1.94,1.59,0.69,0.26,0.86,1.24,0.18,1.01,0.78,0.29,0.71,0.14,0.65,1.41,0.59,1.90,2.84,1.89,0.32,1.11,0.21,0.29,0.77,0.29,0.24,0.39,0.34,0.51,0.72,0.53,0.57,0.48,0.22,0.97,0.95,0.08,0.62,1.69,0.97,0.32,0.63,1.00,0.64,0.23,0.26,0.56,0.23,0.33,0.59,0.87,1.08,0.26,1.07,1.42,1.39,1.33,1.40,1.73,1.45,1.09,0.26,1.04,1.09,0.72,1.51,0.97,1.40,3.17,3.17,3.17,0.03,3.16,3.16,2.22,1.83,1.05,0.00,0.44,1.49,1.87,1.02,1.76,2.40,0.70,0.64,0.59,0.14,1.51,0.91,1.15,1.45,0.16,0.83,0.84,0.13,0.04,0.26,1.52,1.52,0.93,0.91,1.17,0.23,0.72,0.79,0.32,0.22,0.72,1.18,0.72,0.70,0.48,0.34,0.10,0.32,0.57,0.48,0.43,0.39,0.15,0.27,0.89,2.27,2.64,1.35,1.01,2.89,3.16,1.92,0.94,1.48,1.72,0.58,0.23,0.13,1.47,3.17,3.17,3.17,1.55,3.16,3.16,3.16,1.82,0.82,0.21,0.51,1.20,0.38,0.73,0.11,0.25,0.15,0.29,0.54,0.11,0.26,0.68,0.78,0.66,0.77,0.49,0.11,0.57,0.71,0.28,0.08,0.19,0.38,0.99,0.68,0.30,0.40,0.37,0.08,0.13,0.02,0.01,0.20,0.58,0.72,0.74,0.62,0.22,0.52,1.20,0.71,1.53,1.33,0.26,1.17,0.67,0.32,0.52,0.49,0.50,0.18,0.66,1.99,2.23,1.71,0.29,1.76,1.68,0.43,0.76,1.55,2.59,0.89,0.87,2.24,2.73,0.34,1.73,2.09,2.38,1.60,0.24,1.44,0.80,0.58,0.32,2.02,2.57,1.23,0.08,0.39,0.15,0.42,0.64,0.22,1.59,1.66,0.45,0.12,0.45,0.35,0.43,0.57,0.45,0.26,0.41,0.11,0.04,0.10,0.23,0.04,0.16,0.55,0.30,0.43,0.58,0.04,2.24,3.03,3.02,1.18,1.82,3.16,3.16,2.85,1.71,0.10,0.37,0.62,0.39,0.81,2.27,2.13,0.06,2.01,0.67,0.38,0.98,1.00,0.04,0.51,0.21,0.82,1.09,1.06,0.48,1.23,2.34,2.06,0.24,1.33,0.79,0.10,0.57,0.57,0.31,0.56,0.59,0.38,0.09,0.54,0.75,0.41,0.29,0.21,0.18,0.17,0.20,0.15,0.11,0.11,0.08,0.02,0.01,0.06,0.09,0.13,0.08,0.12,0.21,0.13,0.06,0.18,0.08,0.17,0.35,0.61,0.78,0.83,1.16,1.36,0.32,1.03,1.40,1.52,1.12,0.79,0.38,0.04,0.34,0.45,0.05,0.00,0.27,0.46,0.49,0.72,0.51,0.11,0.21,0.13,0.69,0.82,0.67,0.48,0.52,0.58,0.72,0.58,0.45,0.29,0.22,0.16,0.13,0.09,0.08,0.05,0.02,0.00,0.01,0.00,0.03,0.05,0.06,0.10,0.12,0.10,0.12,0.13,0.18,0.18,0.21,0.24,0.21,0.18,0.18,0.09,0.02,0.02,0.00,0.05,0.13,0.17,0.16,0.11,0.08,0.06,0.06,0.02,0.04,0.05,0.05,0.08,0.06,0.01,0.07,0.09,0.08,0.09,0.12,0.13,0.20,0.26,0.26,0.23,0.19,0.14,0.09,0.19,0.29,0.36,0.38,0.38,0.24,0.13,0.14,0.21,0.23,0.26,0.26,0.27,0.26,0.29,0.26,0.29,0.30,0.34,0.36,0.40,0.41,0.40,0.43,0.40,0.35,0.33,0.32,0.31,0.28,0.28,0.29,0.29,0.25,0.21,0.17,0.15,0.16,0.10,0.10,0.11,0.07,0.06,0.09,0.07,0.00,0.15,0.31,0.34,0.29,0.10,0.01,0.02,0.13,0.19,0.14,0.07,0.06,0.07,0.11,0.09,0.06,0.06,0.06,0.05,0.08,0.08,0.09,0.11,0.11,0.14,0.14,0.17,0.18,0.17,0.18,0.18,0.18,0.18,0.18,0.19,0.22,0.23,0.27,0.29,0.29,0.29,0.30,0.30,0.34,0.35,0.34,0.35,0.38,0.37,0.35,0.35,0.36,0.35,0.34,0.32,0.32,0.30,0.30,0.35,0.32,0.32,0.41,0.38,0.28,0.29,0.31,0.34,0.44,0.69,0.83,0.73,0.46,0.48,0.57,0.45,0.33,0.26,0.26,0.29,0.34,0.34,0.28,0.23,0.24,0.30,0.30,0.24,0.16,0.01,0.04,0.08,0.15,0.21,0.21,0.22,0.31,0.32,0.26,0.30,0.29,0.29,0.30,0.33,0.26,0.25,0.27,0.27,0.26,0.28,0.29,0.28,0.29,0.28,0.24,0.24,0.26,0.26,0.23,0.23,0.18,0.17,0.14,0.11,0.08,0.08,0.07,0.08,0.11,0.14,0.17,0.18,0.20,0.22,0.26,0.28,0.29,0.29,0.30,0.32,0.31,0.28,0.23,0.21,0.17,0.12,0.07,0.05,0.03,0.00,0.06,0.11,0.21,0.12,0.10,0.13,0.10,0.11,0.11,0.12,0.14,0.15,0.14,0.12,0.12,0.09,0.13,0.16,0.11,0.08,0.05,0.02,0.00,0.12,0.26,0.28,0.17,0.22,0.41,0.49,0.54,0.60,0.69,0.88,0.72,0.57,0.42,0.40,0.23,0.17,0.12,0.16,0.13,0.11,0.06,0.00,0.07,0.14,0.17,0.14,0.18,0.25,0.24,0.27,0.26,0.25,0.25,0.24,0.20,0.18,0.14,0.10,0.13,0.18,0.24,0.30,0.29,0.22,0.18,0.11,0.24,0.10,0.10,0.03,0.03,0.02,0.02,0.04,0.06,0.09,0.09,0.09,0.13,0.17,0.19,0.21,0.24,0.26,0.29,0.34,0.38,0.42,0.43,0.46,0.49,0.49,0.47,0.49,0.52,0.52,0.50,0.45,0.44,0.45,0.42,0.41,0.41,0.39,0.41,0.44,0.47,0.49,0.52,0.51,0.50,0.53,0.50,0.40,0.35,0.31,0.27,0.26,0.29,0.22,0.16,0.10,0.05,0.04,0.00,0.06,0.14,0.14,0.09,0.06,0.08,0.16,0.24,0.23,0.15,0.21,0.23,0.21,0.26,0.29,0.26,0.16,0.20,0.18,0.29,0.31,0.27,0.29,0.29,0.27,0.19,0.14,0.18,0.09,0.02,0.05,0.11,0.20,0.10,0.06,0.08,0.05,0.08,0.04,0.01,0.06,0.06,0.08,0.06,0.11,0.18,0.17,0.14,0.18,0.20,0.20,0.19,0.17,0.16,0.10,0.08,0.08,0.06,0.04,0.02,0.00,0.00,0.02,0.06,0.09,0.09,0.10,0.12,0.07,0.07,0.09,0.10,0.10,0.10,0.10,0.12,0.14,0.11,0.10,0.07,0.03,0.06,0.13,0.10,0.06,0.08,0.06,0.04,0.07,0.08,0.02,0.08,0.00,0.02,0.04,0.04,0.03,0.02,0.05,0.00,0.18,0.18,0.18,0.11,0.17,0.14,0.04,0.00,0.04,0.07,0.08,0.10,0.04,0.01,0.05,0.14,0.15,0.11,0.09,0.13,0.12,0.11,0.10,0.10,0.10,0.08,0.06,0.05,0.04,0.01,0.01,0.02,0.05,0.06,0.07,0.06,0.09,0.13,0.13,0.15,0.16,0.16,0.16,0.14,0.19,0.24,0.15,0.11,0.09,0.12,0.14,0.03,0.18,0.11,0.07,0.06,0.05,0.03,0.06,0.06,0.04,0.05,0.06,0.03,0.06,0.06,0.10,0.09,0.02,0.09,0.01,0.04,0.07,0.05,0.07,0.12,0.11,0.13,0.27,0.34,0.06,0.00,0.07,0.12,0.07,0.05,0.02,0.04,0.08,0.01,0.05,0.06,0.04,0.00,0.02,0.08,0.13,0.05,0.02,0.01,0.03,0.00,0.06,0.02,0.03,0.12,0.13,0.06,0.01,0.00,0.06,0.11,0.09,0.01,0.02,0.05,0.06,0.07,0.10,0.07,0.01,0.05,0.06,0.02,0.01,0.02,0.00,0.03,0.11,0.15,0.14,0.13,0.15,0.14,0.14,0.13,0.17,0.13,0.00,0.02,0.06,0.11,0.18,0.09,0.02,0.10,0.06,0.00,0.05,0.05,0.02,0.04,0.02,0.06,0.00,0.02,0.00,0.03,0.14,0.16,0.10,0.07,0.09,0.08,0.06,0.05,0.05,0.06,0.04,0.02,0.05,0.08,0.05,0.05,0.03,0.01,0.05,0.06,0.05,0.06,0.08,0.09,0.10,0.11,0.10,0.07,0.04,0.03,0.03,0.03,0.04,0.08,0.06,0.07,0.05,0.06,0.06,0.02,0.00,0.02,0.08,0.11,0.08,0.09,0.14,0.07,0.01,0.05,0.05,0.03,0.01,0.00,0.00,0.03,0.01,0.02,0.00,0.00,0.00,0.06,0.07,0.08,0.07,0.08,0.09,0.08,0.10,0.08,0.04,0.01,0.03,0.13,0.11,0.11,0.11,0.07,0.01,0.04,0.07,0.10,0.08,0.14,0.13,0.06,0.02,0.00,0.00,0.02,0.02,0.05,0.08,0.08,0.06,0.03,0.02,0.01,0.05,0.04,0.03,0.05,0.05,0.08,0.05,0.01,0.03,0.02,0.06,0.02,0.05,0.07,0.08,0.10,0.08,0.11,0.10,0.05,0.05,0.09,0.13,0.11,0.08,0.12,0.13,0.13,0.15,0.14,0.10,0.09,0.06,0.04,0.03,0.01,0.03,0.04,0.00,0.08,0.06,0.07,0.04,0.05,0.03,0.08,0.16,0.14,0.08,0.08,0.11,0.12,0.16,0.16,0.14,0.15,0.17,0.18,0.17,0.19,0.11,0.07,0.04,0.01,0.02,0.02,0.05,0.05,0.01,0.00,0.00,0.00,0.00,0.05,0.09,0.08,0.06,0.03,0.05,0.10,0.07,0.04,0.08,0.13,0.12,0.13,0.15,0.17,0.18,0.19,0.14,0.13,0.12,0.13,0.11,0.09,0.08,0.10,0.09,0.06,0.06,0.11,0.12,0.01,0.03,0.06,0.09,0.03,0.04,0.06,0.06,0.01,0.03,0.03,0.04,0.04,0.02,0.03,0.01,0.00,0.01,0.01,0.06,0.08,0.00,0.01,0.02,0.03,0.05,0.07,0.11,0.07,0.10,0.11,0.05,0.04,0.00,0.00,0.05,0.06,0.07,0.04,0.05,0.06,0.02,0.06,0.04,0.03,0.03,0.04,0.02,0.00,0.02,0.02,0.01,0.03,0.05,0.04,0.03,0.03,0.02,0.01,0.07,0.00,0.00,0.01,0.00,0.10,0.05,0.10,0.06,0.01,0.04,0.02,0.01,0.03,0.06,0.10,0.10,0.06,0.08,0.08,0.08,0.08,0.10,0.10,0.02,0.02,0.03,0.04,0.05,0.07,0.05,0.00,0.01,0.00,0.01,0.00,0.01,0.02,0.01,0.01,0.02,0.02,0.03,0.04,0.06,0.07,0.08,0.10,0.08,0.12,0.13,0.13,0.10,0.08,0.12,0.11,0.11,0.10,0.11,0.10,0.07,0.07,0.08,0.07,0.06,0.07,0.07,0.08,0.08,0.04,0.07,0.07,0.06,0.08,0.11,0.13,0.14,0.13,0.11,0.00,0.35,0.33,0.13,0.01,0.06,0.09,0.09,0.09,0.09,0.16,0.17,0.05,0.04,0.06,0.00,0.02,0.00,0.00,0.00,0.02,0.00,0.08,0.03,0.01,0.07,0.09,0.08,0.07,0.14,0.13,0.07,0.05,0.06,0.06,0.07,0.10,0.12,0.12,0.09,0.08,0.06,0.05,0.02,0.01,0.01,0.00,0.00,0.01,0.01,0.01,0.00,0.00,0.00,0.02,0.03,0.01,0.02,0.05,0.03,0.04,0.08,0.13,0.12,0.13,0.13,0.10,0.05,0.13,0.11,0.09,0.06,0.06,0.11,0.13,0.11,0.06,0.04,0.03,0.03,0.03,0.01,0.00,0.00,0.04,0.08,0.07,0.05,0.03,0.05,0.08,0.09,0.15,0.11,0.06,0.10,0.12,0.09,0.15,0.11,0.09,0.11,0.13,0.11,0.10,0.08,0.08,0.10,0.08,0.06,0.06,0.10,0.19,0.14,0.06,0.05,0.04,0.00,0.03,0.05,0.02,0.00,0.02,0.04,0.03,0.03,0.03,0.03,0.04,0.04,0.05,0.06,0.05,0.05,0.08,0.10,0.08,0.06,0.06,0.06,0.07,0.06,0.06,0.06,0.03,0.06,0.04,0.01,0.01,0.00,0.00,0.06,0.07,0.08,0.03,0.06,0.05,0.02,0.06,0.05,0.05,0.02,0.02,0.01,0.00,0.01,0.03,0.04,0.05,0.08,0.07,0.08,0.04,0.03,0.00,0.02,0.04,0.14,0.16,0.08,0.02,0.02,0.02,0.08,0.07,0.10,0.03,0.02,0.03,0.05,0.02,0.02,0.01,0.03,0.02,0.00,0.02,0.04,0.08,0.04,0.02,0.04,0.06,0.06,0.06,0.08,0.07,0.07,0.07,0.05,0.04,0.05,0.10,0.09,0.04,0.02,0.00,0.00,0.02,0.03,0.01,0.05,0.05,0.06,0.08,0.08,0.10,0.08,0.06,0.05,0.02,0.06,0.05,0.03,0.02,0.01,0.00,0.01,0.03,0.06,0.08,0.05,0.05,0.04,0.04,0.05,0.03,0.04,0.02,0.00,0.00,0.02,0.03,0.01,0.01,0.02,0.03,0.01,0.02,0.00,0.02,0.04,0.02,0.01,0.06,0.08,0.05,0.05,0.05,0.04,0.06,0.00,0.06,0.06,0.03,0.02,0.02,0.01,0.00,0.01,0.00,0.03,0.03,0.03,0.02,0.01,0.01,0.04,0.03,0.03,0.05,0.03,0.02,0.00,0.02,0.04,0.01,0.02,0.01,0.01,0.01,0.01,0.04,0.06,0.06,0.02,0.02,0.09,0.07,0.02,0.00,0.00,0.02,0.08,0.08,0.05,0.03,0.03,0.01,0.02,0.01,0.05,0.04,0.01,0.00,0.00,0.02,0.03,0.09,0.06,0.05,0.05,0.05,0.04,0.03,0.04,0.04,0.04,0.06,0.08,0.07,0.10,0.06,0.02,0.00,0.02,0.06,0.07,0.03,0.02,0.03,0.05,0.02,0.00,0.00,0.01,0.00,0.05,0.10,0.10,0.06,0.06,0.07,0.11,0.08,0.04,0.03,0.06,0.06,0.04,0.04,0.06,0.07,0.05,0.05,0.05,0.04,0.03,0.03,0.02,0.05,0.07,0.11,0.07,0.05,0.06,0.04,0.02,0.05,0.05,0.06,0.04,0.03,0.03,0.01,0.01,0.00,0.00,0.00,0.02,0.00,0.00,0.03,0.02,0.01,0.02,0.01,0.00,0.01,0.00,0.07,0.05,0.00,0.02,0.02,0.01,0.05,0.06,0.06,0.02,0.00,0.01,0.00,0.01,0.00,0.00,0.01,0.00,0.00,0.00,0.01,0.01,0.06,0.04,0.02,0.02,0.02,0.02,0.02,0.00,0.01,0.02,0.00,0.00,0.05,0.05,0.01,0.02,0.02,0.05,0.05,0.00,0.05,0.04,0.08,0.06,0.00,0.05,0.02,0.03,0.03,0.02,0.05,0.02,0.03,0.03,0.00,0.03,0.03,0.01,0.04,0.01,0.03,0.00,0.00,0.00,0.00,0.03,0.02,0.01,0.01,0.01,0.02,0.03,0.02,0.02,0.02,0.02,0.01,0.01,0.03,0.04,0.02,0.01,0.01,0.00
